star_age,star_mass,star_mdot,log_Teff,log_R,log_surf_z,surface_h1,surface_he3,log_center_T,log_center_Rho,phase,x
2.64559090e+03,5.49999962e-01,-1.26426815e-11,3.62347686,9.28259164e-01,-2.34509847,7.39732019e-01,4.24450728e-05,5.72201086,-2.01568604,-1,-1.0
2.79302029e+03,5.49999960e-01,-1.24355203e-11,3.62364657,9.25642728e-01,-2.34509847,7.39732019e-01,4.24450729e-05,5.72445278,-2.00839600,-1,-0.9999986436094207
2.94871262e+03,5.49999958e-01,-1.22246311e-11,3.62387759,9.22924533e-01,-2.34509847,7.39732019e-01,4.24450730e-05,5.72699043,-2.00081969,-1,-0.9999972111975409
3.11299161e+03,5.49999956e-01,-1.20132816e-11,3.62406205,9.20106338e-01,-2.34509847,7.39732019e-01,4.24450731e-05,5.72962233,-1.99296247,-1,-0.9999956997860482
3.28622899e+03,5.49999954e-01,-1.17941516e-11,3.62424886,9.17187349e-01,-2.34509847,7.39732019e-01,4.24450732e-05,5.73234913,-1.98482047,-1,-0.9999941059549253
3.46874596e+03,5.49999952e-01,-1.15708426e-11,3.62444056,9.14167493e-01,-2.34509847,7.39732019e-01,4.24450733e-05,5.73517117,-1.97639335,-1,-0.9999924267490448
3.66090225e+03,5.49999950e-01,-1.13435568e-11,3.62463769,9.11046510e-01,-2.34509847,7.39732019e-01,4.24450735e-05,5.73808844,-1.96768258,-1,-0.9999906588587923
3.86494971e+03,5.49999947e-01,-1.11149456e-11,3.62484825,9.07806026e-01,-2.34509847,7.39732019e-01,4.24450737e-05,5.74111828,-1.95863439,-1,-0.9999887815665341
4.07964568e+03,5.49999945e-01,-1.08824510e-11,3.62505336,9.04463473e-01,-2.34509847,7.39732019e-01,4.24450739e-05,5.74424452,-1.94929745,-1,-0.9999868063050812
4.30564008e+03,5.49999943e-01,-1.06473015e-11,3.62526260,9.01016770e-01,-2.34509847,7.39732019e-01,4.24450742e-05,5.74746899,-1.93966743,-1,-0.999984727094992
4.54522400e+03,5.49999940e-01,-1.04091795e-11,3.62547701,8.97450326e-01,-2.34509847,7.39732019e-01,4.24450746e-05,5.75080687,-1.92969681,-1,-0.9999825228576141
4.79670865e+03,5.49999938e-01,-1.01692768e-11,3.62575063,8.93781859e-01,-2.34509847,7.39732019e-01,4.24450750e-05,5.75424090,-1.91943813,-1,-0.9999802091302761
5.06349084e+03,5.49999935e-01,-9.93045064e-12,3.62597463,8.89990764e-01,-2.34509847,7.39732019e-01,4.24450755e-05,5.75779134,-1.90882989,-1,-0.9999777546613996
5.34386332e+03,5.49999932e-01,-9.68642396e-12,3.62620493,8.86095687e-01,-2.34509847,7.39732019e-01,4.24450762e-05,5.76144075,-1.89792347,-1,-0.9999751751581503
5.64018765e+03,5.49999929e-01,-9.44393615e-12,3.62647217,8.82083950e-01,-2.34509847,7.39732019e-01,4.24450770e-05,5.76520104,-1.88668571,-1,-0.9999724488935322
5.95288683e+03,5.49999927e-01,-9.20213182e-12,3.62672556,8.77959012e-01,-2.34509847,7.39732019e-01,4.24450779e-05,5.76906933,-1.87512447,-1,-0.9999695719758301
6.28224782e+03,5.49999924e-01,-8.95796087e-12,3.62697233,8.73725680e-01,-2.34509847,7.39732019e-01,4.24450791e-05,5.77304080,-1.86325254,-1,-0.9999665417649338
6.62954803e+03,5.49999921e-01,-8.71341522e-12,3.62721762,8.69381711e-01,-2.34509847,7.39732019e-01,4.24450806e-05,5.77711819,-1.85106533,-1,-0.9999633465083231
6.99672097e+03,5.49999917e-01,-8.46783668e-12,3.62746593,8.64922065e-01,-2.34509847,7.39732019e-01,4.24450824e-05,5.78130560,-1.83854757,-1,-0.9999599684171787
7.38377765e+03,5.49999914e-01,-8.22406766e-12,3.62771888,8.60353393e-01,-2.34509847,7.39732019e-01,4.24450847e-05,5.78559734,-1.82571671,-1,-0.9999564073902057
7.79195723e+03,5.49999911e-01,-7.98227205e-12,3.62799326,8.55674511e-01,-2.34509847,7.39732019e-01,4.24450876e-05,5.78999432,-1.81256917,-1,-0.9999526520267945
8.22241265e+03,5.49999908e-01,-7.74105918e-12,3.62826036,8.50886941e-01,-2.34509847,7.39732019e-01,4.24450912e-05,5.79449567,-1.79910884,-1,-0.9999486917195824
8.67639853e+03,5.49999904e-01,-7.50361809e-12,3.62852807,8.45988236e-01,-2.34509847,7.39732019e-01,4.24450958e-05,5.79906607,-1.78539079,-1,-0.9999445149257238
9.15531797e+03,5.49999901e-01,-7.26743258e-12,3.62884041,8.40981092e-01,-2.34509847,7.39732019e-01,4.24451017e-05,5.80374644,-1.77134942,-1,-0.9999401087363158
9.66019735e+03,5.49999897e-01,-7.03396775e-12,3.62910935,8.35868418e-01,-2.34509847,7.39732019e-01,4.24451091e-05,5.80852023,-1.75702236,-1,-0.9999354637083828
1.01925043e+04,5.49999893e-01,-6.80255422e-12,3.62937822,8.30653405e-01,-2.34509847,7.39732019e-01,4.24451185e-05,5.81342487,-1.74233786,-1,-0.9999305663393286
1.07535876e+04,5.49999890e-01,-6.57253149e-12,3.62964110,8.25343149e-01,-2.34509847,7.39732019e-01,4.24451306e-05,5.81842833,-1.72736328,-1,-0.9999254042200098
1.13462805e+04,5.49999886e-01,-6.34675401e-12,3.62989856,8.19926484e-01,-2.34509847,7.39732019e-01,4.24451463e-05,5.82352991,-1.71209052,-1,-0.9999199512837535
1.19711157e+04,5.49999882e-01,-6.12552008e-12,3.63020025,8.14414366e-01,-2.34509847,7.39732019e-01,4.24451665e-05,5.82873018,-1.69652868,-1,-0.999914202629575
1.26292169e+04,5.49999878e-01,-5.90803712e-12,3.63046221,8.08810085e-01,-2.34509847,7.39732019e-01,4.24451925e-05,5.83402019,-1.68069824,-1,-0.9999081479191276
1.33235961e+04,5.49999874e-01,-5.69432199e-12,3.63074675,8.03109364e-01,-2.34509847,7.39732019e-01,4.24452263e-05,5.83940306,-1.66458763,-1,-0.9999017594411904
1.40559849e+04,5.49999870e-01,-5.48523877e-12,3.63100152,7.97322750e-01,-2.34509847,7.39732019e-01,4.24452703e-05,5.84487178,-1.64822021,-1,-0.9998950212645713
1.48271579e+04,5.49999866e-01,-5.27941326e-12,3.63128245,7.91444779e-01,-2.34509847,7.39732019e-01,4.24453273e-05,5.85042872,-1.63158731,-1,-0.999887926262739
1.56417838e+04,5.49999862e-01,-5.07906309e-12,3.63154225,7.85480835e-01,-2.34509847,7.39732019e-01,4.24454025e-05,5.85607034,-1.61469914,-1,-0.9998804314823809
1.64989286e+04,5.49999857e-01,-4.88273858e-12,3.63179455,7.79434242e-01,-2.34509847,7.39732019e-01,4.24455000e-05,5.86179256,-1.59756764,-1,-0.9998725455165516
1.74045445e+04,5.49999853e-01,-4.69262628e-12,3.63207420,7.73308034e-01,-2.34509847,7.39732019e-01,4.24456294e-05,5.86759339,-1.58019646,-1,-0.9998642136033884
1.83574771e+04,5.49999849e-01,-4.50593776e-12,3.63231764,7.67105225e-01,-2.34509847,7.39732019e-01,4.24457982e-05,5.87346944,-1.56259729,-1,-0.999855446363686
1.93635683e+04,5.49999844e-01,-4.32504944e-12,3.63258637,7.60824915e-01,-2.34509847,7.39732019e-01,4.24460221e-05,5.87942246,-1.54476340,-1,-0.9998461900503718
2.04240059e+04,5.49999840e-01,-4.14930795e-12,3.63287523,7.54472815e-01,-2.34509847,7.39732019e-01,4.24463174e-05,5.88544765,-1.52671248,-1,-0.9998364337353621
2.15405205e+04,5.49999835e-01,-3.97916917e-12,3.63311222,7.48051985e-01,-2.34509847,7.39732018e-01,4.24467061e-05,5.89154206,-1.50845380,-1,-0.999826161496665
2.27189764e+04,5.49999831e-01,-3.81301282e-12,3.63333938,7.41559205e-01,-2.34509847,7.39732018e-01,4.24472250e-05,5.89770910,-1.48997761,-1,-0.9998153193811219
2.39607443e+04,5.49999826e-01,-3.65165433e-12,3.63355730,7.35011298e-01,-2.34509847,7.39732018e-01,4.24479127e-05,5.90393185,-1.47133812,-1,-0.9998038947779191
2.52694318e+04,5.49999822e-01,-3.49621783e-12,3.63378952,7.28402540e-01,-2.34509847,7.39732018e-01,4.24488246e-05,5.91021517,-1.45251291,-1,-0.999791854496153
2.66481736e+04,5.49999817e-01,-3.34500288e-12,3.63399164,7.21736137e-01,-2.34509847,7.39732017e-01,4.24500352e-05,5.91655599,-1.43351423,-1,-0.9997791696957292
2.81039714e+04,5.49999812e-01,-3.20053233e-12,3.63425833,7.15012159e-01,-2.34509847,7.39732017e-01,4.24516574e-05,5.92295478,-1.41433712,-1,-0.999765775959099
2.96373572e+04,5.49999808e-01,-3.06044913e-12,3.63445592,7.08239828e-01,-2.34509847,7.39732016e-01,4.24538185e-05,5.92940360,-1.39500776,-1,-0.9997516683917171
3.12532206e+04,5.49999803e-01,-2.92428707e-12,3.63463228,7.01427043e-01,-2.34509847,7.39732015e-01,4.24567002e-05,5.93589489,-1.37554942,-1,-0.9997368020079308
3.29563599e+04,5.49999798e-01,-2.79380646e-12,3.63480045,6.94573575e-01,-2.34509847,7.39732014e-01,4.24605469e-05,5.94242868,-1.35596397,-1,-0.9997211326620717
3.47517293e+04,5.49999793e-01,-2.66775589e-12,3.63497330,6.87682537e-01,-2.34509847,7.39732012e-01,4.24656839e-05,5.94900218,-1.33625959,-1,-0.9997046147741496
3.66446439e+04,5.49999788e-01,-2.54773216e-12,3.63516007,6.80756331e-01,-2.34509847,7.39732010e-01,4.24725478e-05,5.95561283,-1.31644313,-1,-0.9996871994437954
3.86399358e+04,5.49999783e-01,-2.43212095e-12,3.63533457,6.73802005e-01,-2.34509847,7.39732007e-01,4.24817185e-05,5.96225372,-1.29653069,-1,-0.9996688422143717
4.07428069e+04,5.49999778e-01,-2.32089418e-12,3.63547675,6.66831589e-01,-2.34509847,7.39732003e-01,4.24939677e-05,5.96891346,-1.27655977,-1,-0.9996494952269803
4.29594543e+04,5.49999773e-01,-2.21396174e-12,3.63560086,6.59850513e-01,-2.34509847,7.39731997e-01,4.25103207e-05,5.97558684,-1.25654562,-1,-0.9996291014666121
4.52964322e+04,5.49999768e-01,-2.11198246e-12,3.63571353,6.52868055e-01,-2.34509847,7.39731990e-01,4.25321400e-05,5.98226495,-1.23651767,-1,-0.9996076006328402
4.77616793e+04,5.49999763e-01,-2.01523385e-12,3.63586097,6.45891554e-01,-2.34509847,7.39731980e-01,4.25612326e-05,5.98894125,-1.21649561,-1,-0.9995849196874602
5.03607218e+04,5.49999758e-01,-1.92254118e-12,3.63597959,6.38937780e-01,-2.34509847,7.39731967e-01,4.25999294e-05,5.99560016,-1.19652672,-1,-0.9995610077879259
5.31005987e+04,5.49999753e-01,-1.83463391e-12,3.63605841,6.32029578e-01,-2.34509847,7.39731950e-01,4.26512644e-05,6.00221905,-1.17667412,-1,-0.9995358001735181
5.59908693e+04,5.49999748e-01,-1.75104588e-12,3.63612536,6.25186996e-01,-2.34509847,7.39731928e-01,4.27192214e-05,6.00877821,-1.15700234,-1,-0.999509208896071
5.90407527e+04,5.49999743e-01,-1.67199678e-12,3.63618011,6.18436844e-01,-2.34509847,7.39731898e-01,4.28088561e-05,6.01525107,-1.13758593,-1,-0.9994811491373513
6.22599419e+04,5.49999737e-01,-1.59791091e-12,3.63623882,6.11808533e-01,-2.34509847,7.39731859e-01,4.29263646e-05,6.02160920,-1.11850722,-1,-0.9994515317191165
6.56571232e+04,5.49999732e-01,-1.52836592e-12,3.63626064,6.05341658e-01,-2.34509847,7.39731808e-01,4.30792862e-05,6.02781535,-1.09988271,-1,-0.9994202767250386
6.92442080e+04,5.49999727e-01,-1.46356511e-12,3.63628290,5.99077647e-01,-2.34509847,7.39731742e-01,4.32764879e-05,6.03383015,-1.08183232,-1,-0.9993872745669905
7.30315063e+04,5.49999722e-01,-1.40413640e-12,3.63631077,5.93054646e-01,-2.34509847,7.39731658e-01,4.35276600e-05,6.03961637,-1.06447251,-1,-0.9993524303901614
7.70372730e+04,5.49999716e-01,-1.34952601e-12,3.63630577,5.87333170e-01,-2.34509847,7.39731552e-01,4.38460355e-05,6.04511541,-1.04797377,-1,-0.9993155762444949
8.12680340e+04,5.49999710e-01,-1.29977148e-12,3.63630773,5.81944009e-01,-2.34509847,7.39731420e-01,4.42405367e-05,6.05029656,-1.03242754,-1,-0.9992766520899319
8.57444862e+04,5.49999705e-01,-1.25515267e-12,3.63628803,5.76936580e-01,-2.34509847,7.39731259e-01,4.47243765e-05,6.05511196,-1.01797645,-1,-0.99923546750935
9.04747745e+04,5.49999699e-01,-1.21544923e-12,3.63629990,5.72311637e-01,-2.34509847,7.39731066e-01,4.53037817e-05,6.05956094,-1.00462426,-1,-0.999191947567449
9.54748601e+04,5.49999693e-01,-1.18001304e-12,3.63627394,5.68085216e-01,-2.34509847,7.39730839e-01,4.59857563e-05,6.06362775,-9.92416811e-01,-1,-0.9991459454168377
1.00763377e+05,5.49999687e-01,-1.14854575e-12,3.63624573,5.64233898e-01,-2.34509847,7.39730576e-01,4.67735880e-05,6.06733473,-9.81290380e-01,-1,-0.999097289619636
1.06352915e+05,5.49999681e-01,-1.12048339e-12,3.63621647,5.60711334e-01,-2.34509847,7.39730279e-01,4.76644249e-05,6.07072627,-9.71111365e-01,-1,-0.9990458643462519
1.12245954e+05,5.49999674e-01,-1.09517198e-12,3.63618647,5.57446840e-01,-2.34509847,7.39729951e-01,4.86493106e-05,6.07387028,-9.61675899e-01,-1,-0.9989916467809292
1.18491681e+05,5.49999667e-01,-1.07213050e-12,3.63616827,5.54383875e-01,-2.34509847,7.39729591e-01,4.97292681e-05,6.07682081,-9.52820235e-01,-1,-0.998934184389859
1.25060434e+05,5.49999661e-01,-1.05052400e-12,3.63614107,5.51418768e-01,-2.34509847,7.39729206e-01,5.08825645e-05,6.07967764,-9.44246033e-01,-1,-0.9988737500715275
1.32026579e+05,5.49999653e-01,-1.02958844e-12,3.63610583,5.48476283e-01,-2.34509847,7.39728798e-01,5.21091510e-05,6.08251338,-9.35734570e-01,-1,-0.9988096596384616
1.39347516e+05,5.49999646e-01,-1.00880951e-12,3.63606707,5.45471291e-01,-2.34509847,7.39728372e-01,5.33859388e-05,6.08540974,-9.27041644e-01,-1,-0.9987423050222745
1.47083257e+05,5.49999638e-01,-9.87392376e-13,3.63602283,5.42304778e-01,-2.34509847,7.39727932e-01,5.47044237e-05,6.08846234,-9.17879938e-01,-1,-0.9986711340962062
1.55246827e+05,5.49999630e-01,-9.64705129e-13,3.63597146,5.38891829e-01,-2.34509847,7.39727485e-01,5.60474338e-05,6.09175318,-9.08002404e-01,-1,-0.9985960270267059
1.63822664e+05,5.49999622e-01,-9.40315612e-13,3.63591121,5.35158977e-01,-2.34509847,7.39727035e-01,5.73955243e-05,6.09535297,-8.97196891e-01,-1,-0.998517126988416
1.72887938e+05,5.49999614e-01,-9.13309690e-13,3.63587272,5.30947364e-01,-2.34509847,7.39726592e-01,5.87255394e-05,6.09941554,-8.85002025e-01,-1,-0.9984337239962989
1.82409523e+05,5.49999605e-01,-8.83716006e-13,3.63580131,5.26175115e-01,-2.34509847,7.39726164e-01,6.00091793e-05,6.10402016,-8.71176595e-01,-1,-0.9983461228185853
1.92407858e+05,5.49999597e-01,-8.50270406e-13,3.63569293,5.20705910e-01,-2.34509847,7.39725764e-01,6.12108329e-05,6.10929903,-8.55325968e-01,-1,-0.998254135410903
2.02883791e+05,5.49999588e-01,-8.12869892e-13,3.63555616,5.14392341e-01,-2.34509847,7.39725404e-01,6.22886264e-05,6.11539478,-8.37022687e-01,-1,-0.998157753971421
2.13844831e+05,5.49999580e-01,-7.71402094e-13,3.63538163,5.07065023e-01,-2.34509847,7.39725104e-01,6.31885990e-05,6.12247194,-8.15773296e-01,-1,-0.9980569094152923
2.25262735e+05,5.49999571e-01,-7.26136616e-13,3.63516289,4.98664495e-01,-2.34509847,7.39724877e-01,6.38721203e-05,6.13058847,-7.91404431e-01,-1,-0.9979518615858164
2.37140165e+05,5.49999563e-01,-6.78195047e-13,3.63488352,4.89210786e-01,-2.34509847,7.39724730e-01,6.43124644e-05,6.13972692,-7.63960014e-01,-1,-0.9978425859918673
2.49494150e+05,5.49999555e-01,-6.29450711e-13,3.63453944,4.78956038e-01,-2.34509847,7.39724655e-01,6.45373571e-05,6.14964600,-7.34169556e-01,-1,-0.9977289259620028
2.62406943e+05,5.49999547e-01,-5.82436833e-13,3.63415037,4.68300440e-01,-2.34509847,7.39724628e-01,6.46174336e-05,6.15995930,-7.03192713e-01,-1,-0.9976101247461997
2.75973381e+05,5.49999540e-01,-5.38871026e-13,3.63372999,4.57633475e-01,-2.34509847,7.39724622e-01,6.46349056e-05,6.17028896,-6.72163497e-01,-1,-0.9974853098182039
2.90268526e+05,5.49999532e-01,-4.99058776e-13,3.63326933,4.47157436e-01,-2.34509847,7.39724622e-01,6.46369175e-05,6.18043989,-6.41670027e-01,-1,-0.9973537905871529
3.05336052e+05,5.49999525e-01,-4.62900080e-13,3.63278342,4.36907832e-01,-2.34509847,7.39724622e-01,6.46370303e-05,6.19040600,-6.11758071e-01,-1,-0.9972151652403402
3.21226041e+05,5.49999518e-01,-4.29967403e-13,3.63225911,4.26886871e-01,-2.34509847,7.39724622e-01,6.46370328e-05,6.20015487,-5.82499310e-01,-1,-0.9970689730097129
3.37983846e+05,5.49999511e-01,-3.99811481e-13,3.63172474,4.17070535e-01,-2.34509847,7.39724622e-01,6.46370328e-05,6.20968070,-5.53876806e-01,-1,-0.9969147966353071
3.55640646e+05,5.49999504e-01,-3.72130492e-13,3.63115231,4.07445261e-01,-2.34509847,7.39724622e-01,6.46370328e-05,6.21902472,-5.25799195e-01,-1,-0.9967523492618231
3.74249641e+05,5.49999498e-01,-3.46727314e-13,3.63055274,3.97997504e-01,-2.34509847,7.39724622e-01,6.46370328e-05,6.22819998,-4.98224448e-01,-1,-0.9965811414347578
3.93862446e+05,5.49999491e-01,-3.23333586e-13,3.62992607,3.88716319e-01,-2.34509847,7.39724622e-01,6.46370328e-05,6.23721784,-4.71121756e-01,-1,-0.9964006982820403
4.14535088e+05,5.49999485e-01,-3.01791113e-13,3.62927801,3.79590787e-01,-2.34509847,7.39724622e-01,6.46370328e-05,6.24608899,-4.44462859e-01,-1,-0.9962105043399966
4.36332448e+05,5.49999479e-01,-2.81965421e-13,3.62863459,3.70604638e-01,-2.34509847,7.39724622e-01,6.46370328e-05,6.25482775,-4.18200452e-01,-1,-0.9960099626857396
4.59287130e+05,5.49999472e-01,-2.63551712e-13,3.62793021,3.61764289e-01,-2.34509847,7.39724622e-01,6.46370328e-05,6.26342743,-3.92352292e-01,-1,-0.9957987733535808
4.83483594e+05,5.49999466e-01,-2.46557878e-13,3.62721969,3.53050441e-01,-2.34509847,7.39724622e-01,6.46370328e-05,6.27190736,-3.66857195e-01,-1,-0.9955761592884954
5.08981696e+05,5.49999460e-01,-2.30807863e-13,3.62649533,3.44456002e-01,-2.34509847,7.39724622e-01,6.46370328e-05,6.28027451,-3.41701596e-01,-1,-0.9953415697989657
5.35847310e+05,5.49999454e-01,-2.16212726e-13,3.62575667,3.35974759e-01,-2.34509847,7.39724622e-01,6.46370329e-05,6.28853424,-3.16869243e-01,-1,-0.9950943988262336
5.64139118e+05,5.49999448e-01,-2.02613757e-13,3.62498765,3.27603666e-01,-2.34509847,7.39724622e-01,6.46370329e-05,6.29668954,-2.92348564e-01,-1,-0.9948341064799017
5.93975324e+05,5.49999443e-01,-1.90021643e-13,3.62420949,3.19335310e-01,-2.34509847,7.39724622e-01,6.46370329e-05,6.30474750,-2.68119114e-01,-1,-0.9945596052509458
6.25407289e+05,5.49999437e-01,-1.78294553e-13,3.62342212,3.11161589e-01,-2.34509847,7.39724622e-01,6.46370329e-05,6.31271526,-2.44156260e-01,-1,-0.9942704226041643
6.58513550e+05,5.49999431e-01,-1.67369175e-13,3.62262206,3.03077247e-01,-2.34509847,7.39724622e-01,6.46370329e-05,6.32059810,-2.20448702e-01,-1,-0.9939658359777469
6.93419376e+05,5.49999426e-01,-1.57208573e-13,3.62180319,2.95080811e-01,-2.34509847,7.39724622e-01,6.46370330e-05,6.32839680,-1.96993344e-01,-1,-0.9936446928627436
7.30182891e+05,5.49999420e-01,-1.47696801e-13,3.62099072,2.87161400e-01,-2.34509847,7.39724622e-01,6.46370330e-05,6.33612214,-1.73753795e-01,-1,-0.9933064585025091
7.68950358e+05,5.49999415e-01,-1.38877258e-13,3.62016874,2.79318612e-01,-2.34509847,7.39724622e-01,6.46370331e-05,6.34377485,-1.50733474e-01,-1,-0.9929497872375699
8.09774056e+05,5.49999409e-01,-1.30617016e-13,3.61934467,2.71545514e-01,-2.34509847,7.39724622e-01,6.46370331e-05,6.35136243,-1.27903993e-01,-1,-0.9925741980868741
8.52824987e+05,5.49999404e-01,-1.22916259e-13,3.61851342,2.63841002e-01,-2.34509847,7.39724622e-01,6.46370332e-05,6.35888536,-1.05271206e-01,-1,-0.9921781177854043
8.98157546e+05,5.49999398e-01,-1.15686379e-13,3.61768718,2.56197241e-01,-2.34509847,7.39724622e-01,6.46370334e-05,6.36635123,-8.28089165e-02,-1,-0.9917610458843317
9.45991316e+05,5.49999393e-01,-1.08971097e-13,3.61687338,2.48610674e-01,-2.34509847,7.39724622e-01,6.46370335e-05,6.37376266,-6.05112452e-02,-1,-0.9913209621601949
9.96374183e+05,5.49999388e-01,-1.02675452e-13,3.61606536,2.41076977e-01,-2.34509847,7.39724622e-01,6.46370337e-05,6.38112338,-3.83625161e-02,-1,-0.9908574260487396
1.04948407e+06,5.49999383e-01,-9.67840660e-14,3.61526818,2.33592829e-01,-2.34509847,7.39724622e-01,6.46370339e-05,6.38843683,-1.63512802e-02,-1,-0.9903688006098614
1.10549056e+06,5.49999377e-01,-9.12733441e-14,3.61448574,2.26154265e-01,-2.34509847,7.39724622e-01,6.46370343e-05,6.39570684,5.53124748e-03,-1,-0.98985352563373
1.16449733e+06,5.49999372e-01,-8.61100176e-14,3.61371936,2.18756843e-01,-2.34509847,7.39724622e-01,6.46370347e-05,6.40293799,2.72986518e-02,-1,-0.9893106472636812
1.22670924e+06,5.49999367e-01,-8.12475560e-14,3.61296064,2.11399339e-01,-2.34509847,7.39724622e-01,6.46370352e-05,6.41013160,4.89553601e-02,-1,-0.9887382807318678
1.29231458e+06,5.49999362e-01,-7.67326103e-14,3.61222637,2.04075539e-01,-2.34509847,7.39724622e-01,6.46370358e-05,6.41729378,7.05169498e-02,-1,-0.9881346937189591
1.36144231e+06,5.49999357e-01,-7.24822791e-14,3.61151112,1.96783463e-01,-2.34509847,7.39724622e-01,6.46370366e-05,6.42442643,9.19909359e-02,-1,-0.987498699757799
1.43432928e+06,5.49999352e-01,-6.84901825e-14,3.61081506,1.89520061e-01,-2.34509847,7.39724622e-01,6.46370376e-05,6.43153261,1.13390248e-01,-1,-0.9868281197638189
1.51120037e+06,5.49999347e-01,-6.47422893e-14,3.61013838,1.82282439e-01,-2.34509847,7.39724622e-01,6.46370389e-05,6.43861486,1.34721716e-01,-1,-0.9861208847797134
1.59220829e+06,5.49999341e-01,-6.12181212e-14,3.60948089,1.75067551e-01,-2.34509847,7.39724622e-01,6.46370405e-05,6.44567592,1.55988920e-01,-1,-0.9853755898318517
1.67757965e+06,5.49999336e-01,-5.79042145e-14,3.60884492,1.67872601e-01,-2.34509847,7.39724622e-01,6.46370425e-05,6.45271758,1.77199215e-01,-1,-0.984590150046457
