star_age,star_mass,star_mdot,log_Teff,log_R,log_surf_z,surface_h1,surface_he3,log_center_T,log_center_Rho,phase,x
2.07905423e+03,6.49999956e-01,-1.85537642e-11,3.62902013,1.00063189,-2.34509928,7.39732073e-01,4.24450678e-05,5.72075679,-2.16208014,-1,-1.0
2.19322045e+03,6.49999954e-01,-1.82670852e-11,3.62921268,9.98111531e-01,-2.34509928,7.39732072e-01,4.24450678e-05,5.72311576,-2.15503731,-1,-0.9999983609464697
2.31371278e+03,6.49999952e-01,-1.79731051e-11,3.62940301,9.95494599e-01,-2.34509927,7.39732072e-01,4.24450679e-05,5.72556552,-2.14772250,-1,-0.9999966310706896
2.44085526e+03,6.49999950e-01,-1.76690365e-11,3.62960462,9.92779100e-01,-2.34509927,7.39732072e-01,4.24450679e-05,5.72810840,-2.14012797,-1,-0.9999948057205055
2.57493191e+03,6.49999947e-01,-1.73616248e-11,3.62982691,9.89964053e-01,-2.34509926,7.39732071e-01,4.24450679e-05,5.73074493,-2.13225206,-1,-0.9999928808183187
2.71620320e+03,6.49999945e-01,-1.70536740e-11,3.63007271,9.87048730e-01,-2.34509925,7.39732070e-01,4.24450680e-05,5.73347618,-2.12409407,-1,-0.9999908526246323
2.86494314e+03,6.49999942e-01,-1.67396106e-11,3.63029725,9.84034129e-01,-2.34509924,7.39732070e-01,4.24450681e-05,5.73630148,-2.11565488,-1,-0.9999887172055585
3.02145164e+03,6.49999940e-01,-1.64189361e-11,3.63052638,9.80919714e-01,-2.34509923,7.39732069e-01,4.24450681e-05,5.73922101,-2.10693336,-1,-0.9999864702553708
3.18751362e+03,6.49999937e-01,-1.60932142e-11,3.63082770,9.77684939e-01,-2.34509921,7.39732068e-01,4.24450682e-05,5.74225484,-2.09787189,-1,-0.9999840861484556
3.36206267e+03,6.49999934e-01,-1.57606421e-11,3.63106797,9.74349882e-01,-2.34509920,7.39732067e-01,4.24450683e-05,5.74538390,-2.08852358,-1,-0.9999815801949727
3.54590840e+03,6.49999932e-01,-1.54290295e-11,3.63131968,9.70909320e-01,-2.34509918,7.39732065e-01,4.24450684e-05,5.74861288,-2.07887521,-1,-0.9999789407715706
3.74032089e+03,6.49999929e-01,-1.50948448e-11,3.63157691,9.67354473e-01,-2.34509916,7.39732064e-01,4.24450686e-05,5.75195064,-2.06890376,-1,-0.9999761496440542
3.94448249e+03,6.49999926e-01,-1.47552908e-11,3.63183542,9.63698857e-01,-2.34509914,7.39732063e-01,4.24450687e-05,5.75538389,-2.05864369,-1,-0.9999732185512034
4.16068519e+03,6.49999922e-01,-1.44114955e-11,3.63210168,9.59923977e-01,-2.34509911,7.39732061e-01,4.24450689e-05,5.75893086,-2.04804419,-1,-0.9999701145875378
4.38785780e+03,6.49999919e-01,-1.40649873e-11,3.63237939,9.56045572e-01,-2.34509909,7.39732059e-01,4.24450690e-05,5.76257600,-2.03715032,-1,-0.9999668531318425
4.62772602e+03,6.49999916e-01,-1.37124486e-11,3.63268563,9.52051299e-01,-2.34509906,7.39732057e-01,4.24450692e-05,5.76633132,-2.02592544,-1,-0.9999634094087095
4.88077196e+03,6.49999913e-01,-1.33709611e-11,3.63297589,9.47944934e-01,-2.34509903,7.39732055e-01,4.24450694e-05,5.77019301,-2.01438115,-1,-0.999959776496616
5.14715728e+03,6.49999909e-01,-1.30243258e-11,3.63330834,9.43729227e-01,-2.34509900,7.39732053e-01,4.24450697e-05,5.77415911,-2.00252266,-1,-0.9999559520746532
5.42770120e+03,6.49999905e-01,-1.26772732e-11,3.63360612,9.39404673e-01,-2.34509897,7.39732052e-01,4.24450699e-05,5.77822946,-1.99035094,-1,-0.9999519243815009
5.72411415e+03,6.49999902e-01,-1.23310417e-11,3.63390612,9.34965064e-01,-2.34509894,7.39732050e-01,4.24450701e-05,5.78240956,-1.97785116,-1,-0.9999476688609787
6.03643602e+03,6.49999898e-01,-1.19846588e-11,3.63420829,9.30417169e-01,-2.34509891,7.39732048e-01,4.24450705e-05,5.78669339,-1.96503838,-1,-0.9999431849403967
6.36560182e+03,6.49999894e-01,-1.16408808e-11,3.63457413,9.25757499e-01,-2.34509888,7.39732045e-01,4.24450708e-05,5.79108420,-1.95190770,-1,-0.999938459196069
6.71235859e+03,6.49999890e-01,-1.12972843e-11,3.63488436,9.20991356e-01,-2.34509885,7.39732043e-01,4.24450713e-05,5.79557734,-1.93846872,-1,-0.9999334809029448
7.07788711e+03,6.49999886e-01,-1.09566591e-11,3.63522356,9.16116682e-01,-2.34509882,7.39732041e-01,4.24450718e-05,5.80017525,-1.92471497,-1,-0.9999282331088848
7.46306770e+03,6.49999882e-01,-1.06195508e-11,3.63554463,9.11137485e-01,-2.34509879,7.39732039e-01,4.24450725e-05,5.80487411,-1.91065941,-1,-0.9999227031753731
7.86902470e+03,6.49999878e-01,-1.02846207e-11,3.63588287,9.06048643e-01,-2.34509876,7.39732037e-01,4.24450735e-05,5.80956403,-1.89648068,-1,-0.9999168749605647
8.29667711e+03,6.49999874e-01,-9.95154882e-12,3.63621541,9.00858774e-01,-2.34509872,7.39732035e-01,4.24450746e-05,5.81442052,-1.88189443,-1,-0.9999107352706249
8.74717072e+03,6.49999869e-01,-9.62514690e-12,3.63654373,8.95565538e-01,-2.34509870,7.39732033e-01,4.24450760e-05,5.81940729,-1.86695459,-1,-0.999904267655757
9.22271430e+03,6.49999865e-01,-9.30594406e-12,3.63694884,8.90166899e-01,-2.34509867,7.39732031e-01,4.24450782e-05,5.82450206,-1.85169688,-1,-0.9998974404052476
9.72363429e+03,6.49999860e-01,-8.98839179e-12,3.63729505,8.84676922e-01,-2.34509864,7.39732030e-01,4.24450808e-05,5.82969328,-1.83615656,-1,-0.999890248832486
1.02510354e+04,6.49999856e-01,-8.67638626e-12,3.63763796,8.79088936e-01,-2.34509862,7.39732028e-01,4.24450845e-05,5.83497772,-1.82033607,-1,-0.9998826770774495
1.08066282e+04,6.49999851e-01,-8.36930093e-12,3.63800721,8.73412510e-01,-2.34509860,7.39732027e-01,4.24450894e-05,5.84035216,-1.80424766,-1,-0.9998747005819476
1.13928232e+04,6.49999846e-01,-8.06920281e-12,3.63835259,8.67639420e-01,-2.34509858,7.39732026e-01,4.24450959e-05,5.84582029,-1.78787992,-1,-0.9998662847389405
1.20095804e+04,6.49999841e-01,-7.77451689e-12,3.63869292,8.61785439e-01,-2.34509856,7.39732024e-01,4.24451062e-05,5.85136889,-1.77127142,-1,-0.9998574301226971
1.26602783e+04,6.49999836e-01,-7.48889733e-12,3.63909763,8.55833968e-01,-2.34509854,7.39732023e-01,4.24451205e-05,5.85701134,-1.75437977,-1,-0.9998480882290073
1.33451874e+04,6.49999831e-01,-7.20647952e-12,3.63943907,8.49803048e-01,-2.34509853,7.39732022e-01,4.24451415e-05,5.86273255,-1.73724827,-1,-0.9998382551743756
1.40671451e+04,6.49999826e-01,-6.93065686e-12,3.63980891,8.43688659e-01,-2.34509852,7.39732022e-01,4.24451729e-05,5.86853616,-1.71986690,-1,-0.9998278902230181
1.48271917e+04,6.49999821e-01,-6.66233263e-12,3.64014949,8.37501200e-01,-2.34509851,7.39732021e-01,4.24452255e-05,5.87441332,-1.70226353,-1,-0.999816978439629
1.56286548e+04,6.49999816e-01,-6.40029180e-12,3.64049174,8.31233179e-01,-2.34509850,7.39732020e-01,4.24453072e-05,5.88037003,-1.68442140,-1,-0.9998054720507557
1.64720205e+04,6.49999811e-01,-6.14514964e-12,3.64083776,8.24891668e-01,-2.34509849,7.39732020e-01,4.24453931e-05,5.88639992,-1.66636015,-1,-0.9997933640775917
1.73613761e+04,6.49999805e-01,-5.89753111e-12,3.64117213,8.18482491e-01,-2.34509848,7.39732019e-01,4.24454840e-05,5.89249748,-1.64809574,-1,-0.999780595839877
1.82984285e+04,6.49999800e-01,-5.65698234e-12,3.64155476,8.11993217e-01,-2.34509848,7.39732019e-01,4.24456232e-05,5.89867375,-1.62959372,-1,-0.9997671428321101
1.92845848e+04,6.49999795e-01,-5.42498038e-12,3.64188228,8.05445120e-01,-2.34509848,7.39732019e-01,4.24458126e-05,5.90490966,-1.61091202,-1,-0.999752984852937
2.03239224e+04,6.49999789e-01,-5.19999035e-12,3.64224538,7.98835147e-01,-2.34509848,7.39732019e-01,4.24460447e-05,5.91120792,-1.59204028,-1,-0.9997380633642292
2.14190847e+04,6.49999784e-01,-4.98088846e-12,3.64256324,7.92163458e-01,-2.34509848,7.39732019e-01,4.24463853e-05,5.91756859,-1.57297907,-1,-0.9997223404154081
2.25722281e+04,6.49999778e-01,-4.76843225e-12,3.64286668,7.85438314e-01,-2.34509848,7.39732018e-01,4.24468622e-05,5.92398353,-1.55375225,-1,-0.9997057850476223
2.37872790e+04,6.49999772e-01,-4.56491773e-12,3.64322267,7.78654395e-01,-2.34509848,7.39732018e-01,4.24475456e-05,5.93045788,-1.53434642,-1,-0.9996883408906094
2.50665096e+04,6.49999767e-01,-4.36655130e-12,3.64353035,7.71825213e-01,-2.34509847,7.39732018e-01,4.24485335e-05,5.93697873,-1.51480075,-1,-0.9996699753230089
2.64142075e+04,6.49999761e-01,-4.17602263e-12,3.64385805,7.64941188e-01,-2.34509847,7.39732017e-01,4.24497066e-05,5.94355503,-1.49509172,-1,-0.9996506267889076
2.78341946e+04,6.49999755e-01,-3.99315279e-12,3.64418006,7.58014120e-01,-2.34509847,7.39732017e-01,4.24515843e-05,5.95017611,-1.47524643,-1,-0.9996302404183213
2.93298343e+04,6.49999749e-01,-3.81585991e-12,3.64446308,7.51050904e-01,-2.34509847,7.39732016e-01,4.24543543e-05,5.95683521,-1.45528226,-1,-0.9996087679238262
3.09059523e+04,6.49999744e-01,-3.64627668e-12,3.64479113,7.44047252e-01,-2.34509847,7.39732014e-01,4.24585312e-05,5.96353638,-1.43519002,-1,-0.9995861400241532
3.25652310e+04,6.49999738e-01,-3.48184676e-12,3.64506007,7.37019724e-01,-2.34509847,7.39732012e-01,4.24648129e-05,5.97026406,-1.41501814,-1,-0.9995623182088113
3.43141963e+04,6.49999732e-01,-3.32602927e-12,3.64538397,7.29959216e-01,-2.34509847,7.39732009e-01,4.24736517e-05,5.97702649,-1.39473922,-1,-0.9995372087872197
3.61558583e+04,6.49999726e-01,-3.17547841e-12,3.64566036,7.22882231e-01,-2.34509847,7.39732007e-01,4.24813829e-05,5.98380873,-1.37440012,-1,-0.9995107685441874
3.80957796e+04,6.49999720e-01,-3.03134343e-12,3.64591980,7.15796307e-01,-2.34509847,7.39732003e-01,4.24927157e-05,5.99060315,-1.35402269,-1,-0.9994829176189712
4.01392336e+04,6.49999714e-01,-2.89252272e-12,3.64615818,7.08712887e-01,-2.34509847,7.39731998e-01,4.25093449e-05,5.99739904,-1.33364085,-1,-0.9994535803027942
4.22927069e+04,6.49999708e-01,-2.76109548e-12,3.64640651,7.01637774e-01,-2.34509847,7.39731990e-01,4.25308613e-05,6.00419045,-1.31327075,-1,-0.9994226634692951
4.45612023e+04,6.49999702e-01,-2.63496469e-12,3.64661661,6.94593206e-01,-2.34509847,7.39731980e-01,4.25607018e-05,6.01095566,-1.29298020,-1,-0.9993900952946281
4.69525113e+04,6.49999696e-01,-2.51562149e-12,3.64683777,6.87591873e-01,-2.34509847,7.39731966e-01,4.26024442e-05,6.01768249,-1.27280159,-1,-0.9993557639183357
4.94746114e+04,6.49999690e-01,-2.40261108e-12,3.64709715,6.80654116e-01,-2.34509847,7.39731946e-01,4.26628352e-05,6.02435111,-1.25279662,-1,-0.9993195548096091
5.21323747e+04,6.49999683e-01,-2.29676899e-12,3.64729846,6.73810746e-01,-2.34509847,7.39731921e-01,4.27381214e-05,6.03093194,-1.23305260,-1,-0.9992813980210267
5.49348481e+04,6.49999677e-01,-2.19606734e-12,3.64747031,6.67097729e-01,-2.34509847,7.39731885e-01,4.28455162e-05,6.03739030,-1.21367574,-1,-0.999241163668693
5.78917386e+04,6.49999671e-01,-2.10182269e-12,3.64765224,6.60545433e-01,-2.34509847,7.39731838e-01,4.29886273e-05,6.04369688,-1.19475345,-1,-0.9991987123918356
6.10114943e+04,6.49999664e-01,-2.01489230e-12,3.64782674,6.54195919e-01,-2.34509847,7.39731774e-01,4.31799200e-05,6.04981098,-1.17641097,-1,-0.9991539229033684
6.43018604e+04,6.49999658e-01,-1.93402155e-12,3.64796243,6.48100777e-01,-2.34509847,7.39731685e-01,4.34477959e-05,6.05568282,-1.15879268,-1,-0.9991066840075508
6.77816161e+04,6.49999651e-01,-1.85997525e-12,3.64808153,6.42312205e-01,-2.34509847,7.39731564e-01,4.38091968e-05,6.06126116,-1.14205563,-1,-0.9990567260964894
7.14520821e+04,6.49999645e-01,-1.79258670e-12,3.64818557,6.36862323e-01,-2.34509847,7.39731420e-01,4.42418830e-05,6.06651468,-1.12628985,-1,-0.9990040302092519
7.53352388e+04,6.49999638e-01,-1.73215705e-12,3.64830780,6.31792831e-01,-2.34509847,7.39731271e-01,4.46896363e-05,6.07140307,-1.11161844,-1,-0.9989482807791824
7.94328162e+04,6.49999631e-01,-1.67810747e-12,3.64838320,6.27113545e-01,-2.34509847,7.39731096e-01,4.52135365e-05,6.07591672,-1.09807119,-1,-0.9988894529691393
8.37620163e+04,6.49999624e-01,-1.62984515e-12,3.64846583,6.22826946e-01,-2.34509847,7.39730868e-01,4.58979412e-05,6.08005301,-1.08565550,-1,-0.9988272998146629
8.83364948e+04,6.49999617e-01,-1.58692834e-12,3.64852036,6.18909675e-01,-2.34509847,7.39730599e-01,4.67042860e-05,6.08383418,-1.07430742,-1,-0.998761625264563
9.31689106e+04,6.49999609e-01,-1.54867699e-12,3.64856667,6.15317469e-01,-2.34509847,7.39730290e-01,4.76313850e-05,6.08730259,-1.06390034,-1,-0.9986922475784376
9.82638797e+04,6.49999601e-01,-1.51400777e-12,3.64864937,6.11969324e-01,-2.34509847,7.39729949e-01,4.86552726e-05,6.09053596,-1.05419929,-1,-0.9986191004856236
1.03646643e+05,6.49999593e-01,-1.48240491e-12,3.64868853,6.08800804e-01,-2.34509847,7.39729571e-01,4.97896523e-05,6.09359652,-1.04501482,-1,-0.9985418216093492
1.09322668e+05,6.49999585e-01,-1.45223768e-12,3.64872386,6.05720049e-01,-2.34509847,7.39729173e-01,5.09829103e-05,6.09657288,-1.03608422,-1,-0.9984603324541962
1.15314151e+05,6.49999577e-01,-1.42289442e-12,3.64875703,6.02638611e-01,-2.34509847,7.39728799e-01,5.21056027e-05,6.09955054,-1.02714883,-1,-0.9983743143538912
1.21611398e+05,6.49999568e-01,-1.39343222e-12,3.64878898,5.99471650e-01,-2.34509847,7.39728365e-01,5.34056704e-05,6.10261114,-1.01796507,-1,-0.9982839064825694
1.28280968e+05,6.49999559e-01,-1.36283469e-12,3.64881907,5.96102633e-01,-2.34509847,7.39727910e-01,5.47728079e-05,6.10586780,-1.00819034,-1,-0.9981881532706766
1.35272414e+05,6.49999549e-01,-1.33046250e-12,3.64884837,5.92479301e-01,-2.34509847,7.39727426e-01,5.62238381e-05,6.10937088,-9.97676290e-01,-1,-0.9980877789721423
1.42667914e+05,6.49999540e-01,-1.29531988e-12,3.64893080,5.88433074e-01,-2.34509847,7.39726962e-01,5.76158746e-05,6.11328367,-9.85931672e-01,-1,-0.9979816037796557
1.50423770e+05,6.49999530e-01,-1.25668520e-12,3.64896205,5.83913075e-01,-2.34509847,7.39726507e-01,5.89821955e-05,6.11765575,-9.72807455e-01,-1,-0.9978702550535792
1.58576275e+05,6.49999520e-01,-1.21346237e-12,3.64898843,5.78761606e-01,-2.34509847,7.39726007e-01,6.04819495e-05,6.12264025,-9.57844806e-01,-1,-0.9977532117451318
1.67133490e+05,6.49999510e-01,-1.16512097e-12,3.64900839,5.72825053e-01,-2.34509847,7.39725654e-01,6.15401642e-05,6.12838625,-9.40598764e-01,-1,-0.9976303581247173
1.76080709e+05,6.49999500e-01,-1.11134047e-12,3.64901818,5.65987930e-01,-2.34509847,7.39725293e-01,6.26218556e-05,6.13500600,-9.20729370e-01,-1,-0.997501905322399
1.85428036e+05,6.49999490e-01,-1.05215020e-12,3.64903629,5.58089143e-01,-2.34509847,7.39725000e-01,6.35005155e-05,6.14265576,-8.97765351e-01,-1,-0.9973677082777826
1.95167965e+05,6.49999480e-01,-9.88751414e-13,3.64907619,5.49093896e-01,-2.34509847,7.39724802e-01,6.40953863e-05,6.15137071,-8.71597926e-01,-1,-0.9972278747524793
2.05286368e+05,6.49999470e-01,-9.22261442e-13,3.64902791,5.39168253e-01,-2.34509847,7.39724687e-01,6.44395486e-05,6.16099154,-8.42706030e-01,-1,-0.9970826075783623
2.15843234e+05,6.49999461e-01,-8.56682812e-13,3.64898497,5.28614672e-01,-2.34509847,7.39724640e-01,6.45826261e-05,6.17122711,-8.11971211e-01,-1,-0.99693104550959
2.26896824e+05,6.49999452e-01,-7.94380168e-13,3.64887110,5.17872029e-01,-2.34509847,7.39724624e-01,6.46287955e-05,6.18165332,-7.80667813e-01,-1,-0.9967723521087491
2.38533110e+05,6.49999443e-01,-7.37184690e-13,3.64877660,5.07216456e-01,-2.34509847,7.39724622e-01,6.46363574e-05,6.19200109,-7.49593350e-01,-1,-0.9966052930990974
2.50783368e+05,6.49999434e-01,-6.84900468e-13,3.64860075,4.96774757e-01,-2.34509847,7.39724622e-01,6.46370099e-05,6.20217511,-7.19064254e-01,-1,-0.9964294194595651
2.63683780e+05,6.49999426e-01,-6.36953734e-13,3.64839282,4.86551103e-01,-2.34509847,7.39724622e-01,6.46370325e-05,6.21225323,-6.88974533e-01,-1,-0.9962442117349681
2.77294651e+05,6.49999418e-01,-5.93334506e-13,3.64819739,4.76524439e-01,-2.34509847,7.39724622e-01,6.46370328e-05,6.22200114,-6.59692922e-01,-1,-0.9960488041427383
2.91621202e+05,6.49999410e-01,-5.53059252e-13,3.64793434,4.66690506e-01,-2.34509847,7.39724622e-01,6.46370328e-05,6.23156694,-6.30958723e-01,-1,-0.9958431217263912
3.06712411e+05,6.49999402e-01,-5.15994122e-13,3.64765345,4.57027603e-01,-2.34509847,7.39724622e-01,6.46370328e-05,6.24097219,-6.02711054e-01,-1,-0.995626461322033
3.22602778e+05,6.49999394e-01,-4.81833057e-13,3.64733397,4.47529870e-01,-2.34509847,7.39724622e-01,6.46370328e-05,6.25022128,-5.74930094e-01,-1,-0.9953983276224985
3.39358106e+05,6.49999386e-01,-4.50488498e-13,3.64704681,4.38172535e-01,-2.34509847,7.39724622e-01,6.46370328e-05,6.25933693,-5.47548737e-01,-1,-0.9951577759119209
3.56991026e+05,6.49999378e-01,-4.21381935e-13,3.64668647,4.28966970e-01,-2.34509847,7.39724622e-01,6.46370328e-05,6.26830741,-5.20596228e-01,-1,-0.9949046248504508
3.75572879e+05,6.49999371e-01,-3.94352606e-13,3.64633779,4.19888589e-01,-2.34509847,7.39724622e-01,6.46370328e-05,6.27715683,-4.94006476e-01,-1,-0.9946378502146543
3.95126322e+05,6.49999363e-01,-3.69486954e-13,3.64592460,4.10943607e-01,-2.34509847,7.39724622e-01,6.46370328e-05,6.28587892,-4.67799801e-01,-1,-0.9943571267241126
4.15720172e+05,6.49999356e-01,-3.46265143e-13,3.64548880,4.02119360e-01,-2.34509847,7.39724622e-01,6.46370328e-05,6.29448686,-4.41934097e-01,-1,-0.9940614663917765
4.37405195e+05,6.49999349e-01,-3.24687119e-13,3.64503002,3.93409145e-01,-2.34509847,7.39724622e-01,6.46370329e-05,6.30298646,-4.16393765e-01,-1,-0.9937501403839202
4.60233919e+05,6.49999342e-01,-3.04597188e-13,3.64454324,3.84807663e-01,-2.34509847,7.39724622e-01,6.46370329e-05,6.31138300,-3.91162431e-01,-1,-0.9934223945702599
4.84267720e+05,6.49999335e-01,-2.85896669e-13,3.64403682,3.76308323e-01,-2.34509847,7.39724622e-01,6.46370329e-05,6.31968218,-3.66220260e-01,-1,-0.9930773477921705
5.09583760e+05,6.49999328e-01,-2.68458114e-13,3.64353237,3.67902032e-01,-2.34509847,7.39724622e-01,6.46370329e-05,6.32789284,-3.41541188e-01,-1,-0.9927138922556956
5.36239020e+05,6.49999321e-01,-2.52291960e-13,3.64297948,3.59593106e-01,-2.34509847,7.39724622e-01,6.46370329e-05,6.33601127,-3.17138402e-01,-1,-0.992331209900036
5.64288694e+05,6.49999314e-01,-2.37101532e-13,3.64239991,3.51373754e-01,-2.34509847,7.39724622e-01,6.46370329e-05,6.34404464,-2.92993078e-01,-1,-0.9919285083198673
5.93820762e+05,6.49999307e-01,-2.22912958e-13,3.64180252,3.43239305e-01,-2.34509847,7.39724622e-01,6.46370330e-05,6.35199752,-2.69090413e-01,-1,-0.9915045244101346
6.24940011e+05,6.49999301e-01,-2.09677522e-13,3.64120719,3.35182694e-01,-2.34509847,7.39724622e-01,6.46370330e-05,6.35987549,-2.45410668e-01,-1,-0.9910577537722312
6.57663990e+05,6.49999294e-01,-1.97305323e-13,3.64056785,3.27204956e-01,-2.34509847,7.39724622e-01,6.46370331e-05,6.36767843,-2.21951483e-01,-1,-0.9905879444599124
6.92145460e+05,6.49999288e-01,-1.85711449e-13,3.63990640,3.19302831e-01,-2.34509847,7.39724622e-01,6.46370332e-05,6.37541002,-1.98707413e-01,-1,-0.990092903324834
7.28414963e+05,6.49999281e-01,-1.74832716e-13,3.63922612,3.11470555e-01,-2.34509847,7.39724622e-01,6.46370333e-05,6.38307516,-1.75662485e-01,-1,-0.9895721918837659
7.66637055e+05,6.49999275e-01,-1.64654018e-13,3.63853246,3.03706528e-01,-2.34509847,7.39724622e-01,6.46370334e-05,6.39067536,-1.52813116e-01,-1,-0.9890234476507401
8.06837551e+05,6.49999268e-01,-1.55105937e-13,3.63781729,2.96007347e-01,-2.34509847,7.39724622e-01,6.46370336e-05,6.39821348,-1.30146475e-01,-1,-0.9884463000067866
8.49198570e+05,6.49999262e-01,-1.46154805e-13,3.63708587,2.88371684e-01,-2.34509847,7.39724622e-01,6.46370338e-05,6.40569087,-1.07657110e-01,-1,-0.9878381343186986
8.93768691e+05,6.49999256e-01,-1.37758130e-13,3.63633640,2.80795136e-01,-2.34509847,7.39724622e-01,6.46370341e-05,6.41311193,-8.53398578e-02,-1,-0.9871982531509171
9.40682849e+05,6.49999250e-01,-1.29844566e-13,3.63555913,2.73278265e-01,-2.34509847,7.39724622e-01,6.46370344e-05,6.42047620,-6.31920320e-02,-1,-0.9865247192781569
9.90095944e+05,6.49999243e-01,-1.22448251e-13,3.63477236,2.65816669e-01,-2.34509847,7.39724622e-01,6.46370349e-05,6.42778740,-4.12020728e-02,-1,-0.9858153088430294
1.04208718e+06,6.49999237e-01,-1.15487349e-13,3.63397083,2.58408174e-01,-2.34509847,7.39724622e-01,6.46370354e-05,6.43504771,-1.93631854e-02,-1,-0.985068884735137
1.09684623e+06,6.49999231e-01,-1.08948136e-13,3.63315617,2.51051821e-01,-2.34509847,7.39724622e-01,6.46370361e-05,6.44225832,2.32965090e-03,-1,-0.984282723870539
1.15452093e+06,6.49999225e-01,-1.02810907e-13,3.63234281,2.43742620e-01,-2.34509847,7.39724622e-01,6.46370370e-05,6.44942440,2.38909457e-02,-1,-0.9834547038077833
1.21520827e+06,6.49999219e-01,-9.70358262e-14,3.63151028,2.36481209e-01,-2.34509847,7.39724622e-01,6.46370381e-05,6.45654501,4.53137443e-02,-1,-0.9825834320876831
