star_age,star_mass,star_mdot,log_L,log_Teff,log_R,log_surf_z,v_wind_Km_per_s,log_center_T,log_center_Rho,phase,x
4.02384731e+04,9.99999929e-02,-1.47504623e-13,-6.39154130e-01,3.50192063,1.99258818e-01,-2.34509847,2.44003058e-07,5.72045010,-5.98089235e-01,-1,-1.0
4.24227169e+04,9.99999926e-02,-1.45106563e-13,-6.43827769e-01,3.50197630,1.96810676e-01,-2.34509847,2.39468452e-07,5.72267375,-5.91373195e-01,-1,-0.9999983395941177
4.47252544e+04,9.99999923e-02,-1.42660183e-13,-6.48685617e-01,3.50203436,1.94265631e-01,-2.34509847,2.34868957e-07,5.72497750,-5.84408012e-01,-1,-0.9999965892644113
4.71512164e+04,9.99999919e-02,-1.40162958e-13,-6.53698425e-01,3.50209438,1.91639179e-01,-2.34509847,2.30205366e-07,5.72736461,-5.77198302e-01,-1,-0.9999947451105786
4.97054761e+04,9.99999916e-02,-1.37634956e-13,-6.58882678e-01,3.50215667,1.88922466e-01,-2.34509847,2.25512145e-07,5.72983409,-5.69739501e-01,-1,-0.9999928034281388
5.23928404e+04,9.99999912e-02,-1.35070933e-13,-6.64249893e-01,3.50222145,1.86109301e-01,-2.34509847,2.20781303e-07,5.73238853,-5.62020352e-01,-1,-0.9999907605630101
5.52219874e+04,9.99999908e-02,-1.32461075e-13,-6.69784994e-01,3.50228846,1.83207734e-01,-2.34509847,2.16000084e-07,5.73502602,-5.54049371e-01,-1,-0.9999886099183244
5.82186382e+04,9.99999905e-02,-1.29811967e-13,-6.75515610e-01,3.50235828,1.80202788e-01,-2.34509847,2.11183729e-07,5.73775901,-5.45788008e-01,-1,-0.9999863319415639
6.13655319e+04,9.99999901e-02,-1.27147308e-13,-6.81427876e-01,3.50243088,1.77101446e-01,-2.34509847,2.06370077e-07,5.74057956,-5.37259844e-01,-1,-0.9999839397540203
6.46814367e+04,9.99999896e-02,-1.24457435e-13,-6.87516857e-01,3.50250601,1.73906708e-01,-2.34509847,2.01545616e-07,5.74348588,-5.28470694e-01,-1,-0.9999814190885914
6.81821659e+04,9.99999892e-02,-1.21744427e-13,-6.93796775e-01,3.50258339,1.70611982e-01,-2.34509847,1.96711155e-07,5.74648392,-5.19400122e-01,-1,-0.9999787579244136
7.18608132e+04,9.99999888e-02,-1.19010082e-13,-7.00264688e-01,3.50266467,1.67215477e-01,-2.34509847,1.91882232e-07,5.74957480,-5.10044531e-01,-1,-0.9999759615114784
7.57473438e+04,9.99999883e-02,-1.16249841e-13,-7.06914596e-01,3.50274891,1.63722044e-01,-2.34509847,1.87048434e-07,5.75275521,-5.00417952e-01,-1,-0.9999730070710126
7.98367949e+04,9.99999879e-02,-1.13500006e-13,-7.13751266e-01,3.50283601,1.60129490e-01,-2.34509847,1.82264239e-07,5.75602663,-4.90512735e-01,-1,-0.9999698983756087
8.41410680e+04,9.99999874e-02,-1.10725836e-13,-7.20777982e-01,3.50292619,1.56435788e-01,-2.34509847,1.77476051e-07,5.75939073,-4.80324609e-01,-1,-0.9999666263780531
8.86880479e+04,9.99999869e-02,-1.07954652e-13,-7.27990512e-01,3.50302001,1.52641883e-01,-2.34509847,1.72735867e-07,5.76284760,-4.69854175e-01,-1,-0.9999631698810391
9.34704834e+04,9.99999864e-02,-1.05184914e-13,-7.35394921e-01,3.50311742,1.48744843e-01,-2.34509847,1.68035289e-07,5.76639927,-4.59094549e-01,-1,-0.9999595343967419
9.85049622e+04,9.99999859e-02,-1.02402818e-13,-7.42969214e-01,3.50321824,1.44756056e-01,-2.34509847,1.63354590e-07,5.77003603,-4.48075127e-01,-1,-0.9999557073156194
1.03811309e+05,9.99999853e-02,-9.96473554e-14,-7.50740236e-01,3.50332276,1.40661524e-01,-2.34509847,1.58754990e-07,5.77376989,-4.36761195e-01,-1,-0.9999516735674452
1.09407751e+05,9.99999848e-02,-9.69002729e-14,-7.58697594e-01,3.50343072,1.36466917e-01,-2.34509847,1.54206417e-07,5.77759563,-4.25165547e-01,-1,-0.9999474192963712
1.15301181e+05,9.99999842e-02,-9.41698449e-14,-7.66826138e-01,3.50354187,1.32180349e-01,-2.34509847,1.49720235e-07,5.78150628,-4.13309233e-01,-1,-0.9999429392626685
1.21507885e+05,9.99999837e-02,-9.14601014e-14,-7.75136383e-01,3.50365666,1.27795648e-01,-2.34509847,1.45303611e-07,5.78550698,-4.01175628e-01,-1,-0.9999382210861392
1.28044756e+05,9.99999831e-02,-8.87613246e-14,-7.83620736e-01,3.50377400,1.23318784e-01,-2.34509847,1.40933332e-07,5.78959274,-3.88777249e-01,-1,-0.9999332519251598
1.34929176e+05,9.99999825e-02,-8.60859631e-14,-7.92269095e-01,3.50389591,1.18750786e-01,-2.34509847,1.36641850e-07,5.79376243,-3.76117732e-01,-1,-0.9999280185663817
1.42179186e+05,9.99999819e-02,-8.34591243e-14,-8.01092711e-01,3.50402184,1.14087120e-01,-2.34509847,1.32463243e-07,5.79802063,-3.63184008e-01,-1,-0.9999225072955011
1.49813873e+05,9.99999812e-02,-8.08683583e-14,-8.10068293e-01,3.50415105,1.09340897e-01,-2.34509847,1.28371962e-07,5.80235531,-3.50013873e-01,-1,-0.9999167036030725
1.57866401e+05,9.99999806e-02,-7.83012850e-14,-8.19217161e-01,3.50428419,1.04500200e-01,-2.34509847,1.24349859e-07,5.80677754,-3.36574204e-01,-1,-0.999910582278677
1.66345631e+05,9.99999800e-02,-7.57720654e-14,-8.28523738e-01,3.50442063,9.95740191e-02,-2.34509847,1.20415606e-07,5.81127871,-3.22892558e-01,-1,-0.9999041365864106
1.75271552e+05,9.99999793e-02,-7.32966699e-14,-8.37958500e-01,3.50456037,9.45771524e-02,-2.34509847,1.16593597e-07,5.81584530,-3.09009256e-01,-1,-0.9998973513311504
1.84664981e+05,9.99999786e-02,-7.08615407e-14,-8.47534023e-01,3.50470302,8.95040958e-02,-2.34509847,1.12857132e-07,5.82048166,-2.94911470e-01,-1,-0.9998902106883492
1.94574896e+05,9.99999779e-02,-6.84789255e-14,-8.57241503e-01,3.50484712,8.43621621e-02,-2.34509847,1.09218441e-07,5.82518145,-2.80610038e-01,-1,-0.9998826774261925
2.05005555e+05,9.99999772e-02,-6.61358020e-14,-8.67057495e-01,3.50499432,7.91597558e-02,-2.34509847,1.05664679e-07,5.82993683,-2.66136989e-01,-1,-0.9998747483078588
2.15985346e+05,9.99999765e-02,-6.38680606e-14,-8.76967338e-01,3.50514453,7.39044173e-02,-2.34509847,1.02250791e-07,5.83474160,-2.51507011e-01,-1,-0.9998664017535213
2.27565677e+05,9.99999758e-02,-6.16596371e-14,-8.86959539e-01,3.50529622,6.86049465e-02,-2.34509847,9.89420254e-08,5.83958746,-2.36748426e-01,-1,-0.9998575986841425
2.39744819e+05,9.99999751e-02,-5.95201022e-14,-8.96991664e-01,3.50545008,6.32811517e-02,-2.34509847,9.57566786e-08,5.84445668,-2.21915555e-01,-1,-0.9998483404140637
2.52598305e+05,9.99999743e-02,-5.74426527e-14,-9.07070240e-01,3.50560496,5.79321056e-02,-2.34509847,9.26770274e-08,5.84934995,-2.07010082e-01,-1,-0.9998385695250436
2.66120661e+05,9.99999736e-02,-5.54331168e-14,-9.17149104e-01,3.50576040,5.25818028e-02,-2.34509847,8.97106776e-08,5.85424510,-1.92095182e-01,-1,-0.999828290178276
2.80382567e+05,9.99999728e-02,-5.34999873e-14,-9.27201904e-01,3.50591615,4.72439068e-02,-2.34509847,8.68691330e-08,5.85912903,-1.77207205e-01,-1,-0.9998174486446453
2.95402617e+05,9.99999720e-02,-5.16487170e-14,-9.37163152e-01,3.50607029,4.19550010e-02,-2.34509847,8.41561418e-08,5.86396829,-1.62451619e-01,-1,-0.9998060307894714
3.11237676e+05,9.99999712e-02,-4.98824309e-14,-9.46997015e-01,3.50622284,3.67329718e-02,-2.34509847,8.15751126e-08,5.86874623,-1.47875521e-01,-1,-0.9997939933854461
3.27933994e+05,9.99999704e-02,-4.82078588e-14,-9.56643118e-01,3.50637197,3.16116486e-02,-2.34509847,7.91333919e-08,5.87343201,-1.33571676e-01,-1,-0.9997813012745104
3.45517423e+05,9.99999696e-02,-4.66347788e-14,-9.66041700e-01,3.50651749,2.66213157e-02,-2.34509847,7.68462402e-08,5.87799835,-1.19627037e-01,-1,-0.9997679348046397
3.64098083e+05,9.99999687e-02,-4.51617659e-14,-9.75091076e-01,3.50665787,2.18158796e-02,-2.34509847,7.47080533e-08,5.88239616,-1.06189980e-01,-1,-0.9997538102654462
3.83680880e+05,9.99999679e-02,-4.37960240e-14,-9.83760965e-01,3.50679231,1.72120576e-02,-2.34509847,7.27294207e-08,5.88661045,-9.33145588e-02,-1,-0.999738923927515
4.04333021e+05,9.99999670e-02,-4.25350772e-14,-9.91971000e-01,3.50691932,1.28530152e-02,-2.34509847,7.09030903e-08,5.89060138,-8.11194090e-02,-1,-0.9997232247018155
4.26125757e+05,9.99999661e-02,-4.13889035e-14,-9.99666152e-01,3.50703819,8.76770469e-03,-2.34509847,6.92452906e-08,5.89434192,-6.96882370e-02,-1,-0.9997066584251726
4.49131682e+05,9.99999651e-02,-4.03501912e-14,-1.00678382,3.50714811,4.98901958e-03,-2.34509847,6.77430434e-08,5.89780183,-5.91135215e-02,-1,-0.9996891699134973
4.73415668e+05,9.99999642e-02,-3.94209067e-14,-1.01330954,3.50724820,1.52597198e-03,-2.34509847,6.63984338e-08,5.90097313,-4.94204489e-02,-1,-0.9996707098527657
4.99019193e+05,9.99999632e-02,-3.85876218e-14,-1.01927117,3.50734028,-1.63899245e-03,-2.34509847,6.51944947e-08,5.90387126,-4.05573072e-02,-1,-0.9996512467124706
5.26020960e+05,9.99999622e-02,-3.78522456e-14,-1.02466449,3.50742325,-4.50159235e-03,-2.34509847,6.41327212e-08,5.90649238,-3.25398238e-02,-1,-0.9996307206646184
5.54568405e+05,9.99999611e-02,-3.72023549e-14,-1.02954230,3.50749814,-7.09028600e-03,-2.34509847,6.31950791e-08,5.90886278,-2.52863700e-02,-1,-0.999609019632159
5.84652080e+05,9.99999600e-02,-3.66171841e-14,-1.03400683,3.50756658,-9.45943235e-03,-2.34509847,6.23509616e-08,5.91103199,-1.86475984e-02,-1,-0.9995861507972186
6.16299198e+05,9.99999588e-02,-3.60857760e-14,-1.03814005,3.50762986,-1.16525939e-02,-2.34509847,6.15850605e-08,5.91304017,-1.24994204e-02,-1,-0.9995620934731756
6.49719436e+05,9.99999577e-02,-3.55993143e-14,-1.04203624,3.50768945,-1.37198613e-02,-2.34509847,6.08860563e-08,5.91493340,-6.70106776e-03,-1,-0.9995366882689747
6.85042851e+05,9.99999564e-02,-3.51409481e-14,-1.04577748,3.50774660,-1.57047825e-02,-2.34509847,6.02279203e-08,5.91675103,-1.13336750e-03,-1,-0.999509836318634
7.22253642e+05,9.99999551e-02,-3.46993804e-14,-1.04948370,3.50780316,-1.76710181e-02,-2.34509847,5.95959680e-08,5.91855178,4.38321306e-03,-1,-0.9994815496336668
7.61458429e+05,9.99999538e-02,-3.42610279e-14,-1.05324612,3.50786050,-1.96669136e-02,-2.34509847,5.89699219e-08,5.92037955,9.98488183e-03,-1,-0.9994517471642951
8.02773291e+05,9.99999524e-02,-3.38127564e-14,-1.05715516,3.50792004,-2.17405136e-02,-2.34509847,5.83301747e-08,5.92227884,1.58083648e-02,-1,-0.9994203406702526
8.46316179e+05,9.99999509e-02,-3.33455989e-14,-1.06130279,3.50798311,-2.39404566e-02,-2.34509847,5.76641388e-08,5.92429394,2.19840454e-02,-1,-0.9993872404882271
8.92202679e+05,9.99999494e-02,-3.28482795e-14,-1.06578472,3.50805110,-2.63174014e-02,-2.34509847,5.69549040e-08,5.92647108,2.86580305e-02,-1,-0.999352358752718
9.40545234e+05,9.99999479e-02,-3.23066856e-14,-1.07070145,3.50812593,-2.89254370e-02,-2.34509847,5.61818298e-08,5.92885992,3.59839590e-02,-1,-0.9993156099874528
9.91425512e+05,9.99999462e-02,-3.17079572e-14,-1.07616054,3.50820875,-3.18206195e-02,-2.34509847,5.53246427e-08,5.93151181,4.41166580e-02,-1,-0.9992769321105212
1.04488663e+06,9.99999446e-02,-3.10430272e-14,-1.08227568,3.50830058,-3.50618534e-02,-2.34509847,5.43688915e-08,5.93448087,5.32254201e-02,-1,-0.9992362923454902
1.10134210e+06,9.99999429e-02,-3.02967807e-14,-1.08929948,3.50840589,-3.87843703e-02,-2.34509847,5.32953697e-08,5.93789089,6.36911832e-02,-1,-0.9991933763511872
1.16052586e+06,9.99999411e-02,-2.94589375e-14,-1.09730135,3.50852723,-4.30279798e-02,-2.34509847,5.20902172e-08,5.94177814,7.56228384e-02,-1,-0.9991483863810925
1.22283739e+06,9.99999393e-02,-2.85005126e-14,-1.10667155,3.50866737,-4.79933705e-02,-2.34509847,5.07044790e-08,5.94632599,8.95932471e-02,-1,-0.9991010187607984
1.28814295e+06,9.99999375e-02,-2.74174207e-14,-1.11764853,3.50883103,-5.38091784e-02,-2.34509847,4.91359002e-08,5.95165219,1.05967370e-01,-1,-0.9990513751560084
1.35643919e+06,9.99999357e-02,-2.61899400e-14,-1.13058080,3.50902315,-6.06595499e-02,-2.34509847,4.73530481e-08,5.95792567,1.25268502e-01,-1,-0.9989994581133065
1.42763610e+06,9.99999339e-02,-2.48126381e-14,-1.14580672,3.50924926,-6.87247233e-02,-2.34509847,4.53465768e-08,5.96531184,1.48014856e-01,-1,-0.9989453360559762
1.50162135e+06,9.99999321e-02,-2.33002137e-14,-1.16350612,3.50951239,-7.81006803e-02,-2.34509847,4.31347683e-08,5.97389892,1.74482770e-01,-1,-0.9988890943743908
1.57840579e+06,9.99999304e-02,-2.17060096e-14,-1.18345600,3.50981054,-8.86719316e-02,-2.34509847,4.07927827e-08,5.98357837,2.04346454e-01,-1,-0.9988307248206594
1.65830255e+06,9.99999288e-02,-2.01211170e-14,-1.20484896,3.51013151,-1.00010340e-01,-2.34509847,3.84507735e-08,5.99395579,2.36415239e-01,-1,-0.9987699893614208
1.74199707e+06,9.99999271e-02,-1.86271309e-14,-1.22663718,3.51046066,-1.11562763e-01,-2.34509847,3.62263025e-08,6.00452698,2.69139189e-01,-1,-0.9987063669428402
1.83009739e+06,9.99999256e-02,-1.72657129e-14,-1.24812870,3.51078824,-1.22963681e-01,-2.34509847,3.41823094e-08,6.01497134,3.01500603e-01,-1,-0.9986393953485694
1.92298102e+06,9.99999240e-02,-1.60333737e-14,-1.26912655,3.51111051,-1.34107136e-01,-2.34509847,3.23126547e-08,6.02530351,3.33366406e-01,-1,-0.9985687876052292
2.02091130e+06,9.99999225e-02,-1.49127789e-14,-1.28964250,3.51142869,-1.45001483e-01,-2.34509847,3.05930651e-08,6.03526156,3.64318605e-01,-1,-0.9984943435285336
2.12412363e+06,9.99999211e-02,-1.38945080e-14,-1.30972162,3.51174327,-1.55670204e-01,-2.34509847,2.90129508e-08,6.04501043,3.94672438e-01,-1,-0.9984158841734655
2.23288410e+06,9.99999196e-02,-1.29624544e-14,-1.32939685,3.51205652,-1.66134304e-01,-2.34509847,2.75488397e-08,6.05457084,4.24472995e-01,-1,-0.9983332072652598
2.34746786e+06,9.99999182e-02,-1.21082572e-14,-1.34870237,3.51236946,-1.76412948e-01,-2.34509847,2.61905548e-08,6.06395687,4.53759847e-01,-1,-0.9982461036419727
2.46821459e+06,9.99999168e-02,-1.13232818e-14,-1.36766682,3.51268236,-1.86520968e-01,-2.34509847,2.49258272e-08,6.07318306,4.82593847e-01,-1,-0.998154315087617
2.59540962e+06,9.99999154e-02,-1.06018447e-14,-1.38631691,3.51299636,-1.96474030e-01,-2.34509847,2.37493150e-08,6.08226641,5.11022294e-01,-1,-0.998057624701675
2.72935109e+06,9.99999140e-02,-9.93445412e-15,-1.40467393,3.51331343,-2.06286663e-01,-2.34509847,2.26465597e-08,6.09122046,5.39071071e-01,-1,-0.9979558058457971
2.87045721e+06,9.99999127e-02,-9.31967785e-15,-1.42276712,3.51363120,-2.15968808e-01,-2.34509847,2.16175660e-08,6.10005242,5.66765655e-01,-1,-0.9978485406075125
3.01904791e+06,9.99999114e-02,-8.74954864e-15,-1.44061149,3.51395166,-2.25531911e-01,-2.34509847,2.06502871e-08,6.10877086,5.94147763e-01,-1,-0.9977355857842745
3.17553127e+06,9.99999100e-02,-8.22037871e-15,-1.45822987,3.51427398,-2.34985744e-01,-2.34509847,1.97399666e-08,6.11738506,6.21246240e-01,-1,-0.9976166311641773
3.34029147e+06,9.99999087e-02,-7.72866128e-15,-1.47564484,3.51459712,-2.44339507e-01,-2.34509847,1.88821531e-08,6.12590427,6.48081845e-01,-1,-0.9974913847034792
3.51381604e+06,9.99999074e-02,-7.27121782e-15,-1.49287309,3.51492055,-2.53600484e-01,-2.34509847,1.80728210e-08,6.13433605,6.74676032e-01,-1,-0.9973594757944304
3.69645081e+06,9.99999062e-02,-6.84466927e-15,-1.50992852,3.51524488,-2.62776878e-01,-2.34509847,1.73082852e-08,6.14268671,7.01041438e-01,-1,-0.9972206415459717
3.88882872e+06,9.99999049e-02,-6.44702324e-15,-1.52682195,3.51556964,-2.71873112e-01,-2.34509847,1.65863719e-08,6.15095936,7.27196214e-01,-1,-0.9970744008134161
4.09133756e+06,9.99999036e-02,-6.07540394e-15,-1.54358057,3.51589044,-2.80894003e-01,-2.34509847,1.59023432e-08,6.15915852,7.53165114e-01,-1,-0.9969204588087932
4.30447714e+06,9.99999024e-02,-5.72766287e-15,-1.56021944,3.51620589,-2.89844350e-01,-2.34509847,1.52536512e-08,6.16728782,7.78961037e-01,-1,-0.9967584355894133
4.52889399e+06,9.99999012e-02,-5.40196368e-15,-1.57674539,3.51651659,-2.98728732e-01,-2.34509847,1.46384462e-08,6.17534946,8.04588642e-01,-1,-0.9965878396798217
4.76518952e+06,9.99998999e-02,-5.09667732e-15,-1.59316258,3.51682403,-3.07552202e-01,-2.34509847,1.40554968e-08,6.18334682,8.30062183e-01,-1,-0.9964082139036252
5.01389474e+06,9.99998987e-02,-4.81075463e-15,-1.60948475,3.51712611,-3.16317444e-01,-2.34509847,1.35038911e-08,6.19128385,8.55402259e-01,-1,-0.9962191546006981
5.27567003e+06,9.99998975e-02,-4.54221207e-15,-1.62571767,3.51742214,-3.25025958e-01,-2.34509847,1.29800989e-08,6.19916550,8.80611375e-01,-1,-0.9960201597671721
5.55122794e+06,9.99998963e-02,-4.28994989e-15,-1.64184914,3.51771648,-3.33680383e-01,-2.34509847,1.24838347e-08,6.20699532,9.05687315e-01,-1,-0.9958106877408887
5.84139678e+06,9.99998951e-02,-4.05323751e-15,-1.65790992,3.51800197,-3.42281746e-01,-2.34509847,1.20130995e-08,6.21477439,9.30626772e-01,-1,-0.9955901088619187
6.14685535e+06,9.99998939e-02,-3.83061859e-15,-1.67388672,3.51828344,-3.50833089e-01,-2.34509847,1.15663645e-08,6.22250605,9.55441239e-01,-1,-0.9953579071239843
6.46838387e+06,9.99998927e-02,-3.62121523e-15,-1.68979362,3.51855802,-3.59335704e-01,-2.34509847,1.11419210e-08,6.23019024,9.80142470e-01,-1,-0.9951134894239361
6.80684586e+06,9.99998915e-02,-3.42415789e-15,-1.70562256,3.51882872,-3.67791566e-01,-2.34509847,1.07389982e-08,6.23782659,1.00474124,-1,-0.9948561993361095
7.16311798e+06,9.99998903e-02,-3.23871093e-15,-1.72139185,3.51909178,-3.76202339e-01,-2.34509847,1.03559164e-08,6.24541392,1.02924009,-1,-0.9945853704461506
7.53815518e+06,9.99998892e-02,-3.06403425e-15,-1.73709524,3.51934969,-3.84569860e-01,-2.34509847,9.99154694e-09,6.25295029,1.05363952,-1,-0.9943002768256639
7.93293325e+06,9.99998880e-02,-2.89942266e-15,-1.75274460,3.51960062,-3.92896388e-01,-2.34509847,9.64440992e-09,6.26043839,1.07794863,-1,-0.9940001767042224
8.34849228e+06,9.99998868e-02,-2.74422602e-15,-1.76834470,3.51984419,-4.01183584e-01,-2.34509847,9.31334486e-09,6.26788108,1.10217700,-1,-0.9936842794321954
8.78594224e+06,9.99998857e-02,-2.59773269e-15,-1.78388537,3.52008402,-4.09433570e-01,-2.34509847,8.99741730e-09,6.27528325,1.12633517,-1,-0.9933517412389756
9.24640754e+06,9.99998845e-02,-2.45979035e-15,-1.79938922,3.52031450,-4.17646458e-01,-2.34509847,8.69616929e-09,6.28264802,1.15042146,-1,-0.9930017073770401
9.73112644e+06,9.99998834e-02,-2.32947735e-15,-1.81484944,3.52053767,-4.25822913e-01,-2.34509847,8.40754110e-09,6.28997649,1.17443298,-1,-0.9926332365530275
1.02413724e+07,9.99998822e-02,-2.20644271e-15,-1.83026716,3.52075381,-4.33964049e-01,-2.34509847,8.13112057e-09,6.29726996,1.19837571,-1,-0.9922453607154436
1.07784912e+07,9.99998811e-02,-2.09026358e-15,-1.84564424,3.52096331,-4.42071579e-01,-2.34509847,7.86618813e-09,6.30452769,1.22225021,-1,-0.9918370568369923
1.13438991e+07,9.99998799e-02,-1.98052808e-15,-1.86098189,3.52116646,-4.50146710e-01,-2.34509847,7.61200972e-09,6.31174747,1.24606316,-1,-0.9914072483132971
1.19390995e+07,9.99998788e-02,-1.87687215e-15,-1.87627597,3.52136506,-4.58190957e-01,-2.34509847,7.36813079e-09,6.31892791,1.26981102,-1,-0.9909547922983973
1.25656621e+07,9.99998776e-02,-1.77892089e-15,-1.89153138,3.52155798,-4.66204505e-01,-2.34509847,7.13364152e-09,6.32606740,1.29348968,-1,-0.9904784955467802
1.32252136e+07,9.99998765e-02,-1.68635423e-15,-1.90675987,3.52174280,-4.74188387e-01,-2.34509847,6.90773577e-09,6.33316801,1.31710417,-1,-0.9899771214830008
1.39195193e+07,9.99998754e-02,-1.59879575e-15,-1.92195193,3.52192281,-4.82144425e-01,-2.34509847,6.68992951e-09,6.34022961,1.34066104,-1,-0.9894493281714637
1.46504105e+07,9.99998742e-02,-1.51602779e-15,-1.93710569,3.52209949,-4.90074679e-01,-2.34509847,6.48010518e-09,6.34725255,1.36416793,-1,-0.9888937235050735
1.54198238e+07,9.99998731e-02,-1.43775257e-15,-1.95222107,3.52227314,-4.97979663e-01,-2.34509847,6.27766168e-09,6.35423543,1.38763485,-1,-0.9883088353303868
1.62297573e+07,9.99998720e-02,-1.36368318e-15,-1.96730866,3.52244176,-5.05860704e-01,-2.34509847,6.08181254e-09,6.36117742,1.41106160,-1,-0.9876931447432437
1.70823556e+07,9.99998709e-02,-1.29356903e-15,-1.98236505,3.52260733,-5.13720031e-01,-2.34509847,5.89223639e-09,6.36807736,1.43445244,-1,-0.9870450214739578
1.79798702e+07,9.99998697e-02,-1.22720595e-15,-1.99738895,3.52277106,-5.21559452e-01,-2.34509847,5.70874044e-09,6.37493577,1.45780983,-1,-0.9863627539902156
1.89246668e+07,9.99998686e-02,-1.16438746e-15,-2.01238163,3.52293357,-5.29380808e-01,-2.34509847,5.53101246e-09,6.38175438,1.48113436,-1,-0.985644543947805
1.99192935e+07,9.99998675e-02,-1.10487605e-15,-2.02732664,3.52310003,-5.37186221e-01,-2.34509847,5.35891995e-09,6.38853661,1.50442750,-1,-0.9848884543467313
2.09662579e+07,9.99998664e-02,-1.04861630e-15,-2.04226214,3.52326128,-5.44976487e-01,-2.34509848,5.19214497e-09,6.39528401,1.52768632,-1,-0.984092578974057
2.20683544e+07,9.99998653e-02,-9.95238409e-16,-2.05717357,3.52342187,-5.52753377e-01,-2.34509848,5.02997502e-09,6.40199890,1.55090887,-1,-0.9832547935988709
