star_age,star_mass,star_mdot,log_L,log_Teff,log_R,log_surf_z,v_wind_Km_per_s,log_center_T,log_center_Rho,phase,x
5.27264270e+02,2.49999984,-2.78946217e-10,2.66653651,3.64322975,1.56948591,-2.34509868,7.47626675e-05,5.72123169,-3.31132346,-1,-1.0
5.53241344e+02,2.49999983,-2.75560086e-10,2.66302977,3.64348208,1.56722788,-2.34509868,7.46292707e-05,5.72340451,-3.30481933,-1,-0.9999915684280756
5.80494311e+02,2.49999982,-2.71937803e-10,2.65939479,3.64374165,1.56489125,-2.34509868,7.44475255e-05,5.72565321,-3.29808877,-1,-0.9999827227300799
6.09081060e+02,2.49999981,-2.68211149e-10,2.65563490,3.64400990,1.56247480,-2.34509868,7.42520840e-05,5.72797903,-3.29112593,-1,-0.9999734441165502
6.39060085e+02,2.49999981,-2.64355324e-10,2.65191516,3.64432974,1.55997525,-2.34509868,7.40363830e-05,5.73038450,-3.28392480,-1,-0.9999637136016541
6.70498144e+02,2.49999980,-2.60423506e-10,2.64789751,3.64461628,1.55739335,-2.34509868,7.38121511e-05,5.73286995,-3.27648437,-1,-0.9999535095172518
7.03543243e+02,2.49999979,-2.56338684e-10,2.64375992,3.64491731,1.55472250,-2.34509868,7.35577839e-05,5.73544153,-3.26878548,-1,-0.9999427838239359
7.38203422e+02,2.49999978,-2.52297526e-10,2.63973140,3.64529001,1.55196284,-2.34509868,7.33309824e-05,5.73809791,-3.26083101,-1,-0.9999315339121039
7.74537967e+02,2.49999977,-2.48245288e-10,2.63531076,3.64560729,1.54911795,-2.34509868,7.31102783e-05,5.74083795,-3.25262785,-1,-0.9999197405388583
8.12623045e+02,2.49999976,-2.44017151e-10,2.63086839,3.64596351,1.54618434,-2.34509868,7.28502737e-05,5.74366332,-3.24416721,-1,-0.9999073789821101
8.52499912e+02,2.49999975,-2.39741790e-10,2.62627068,3.64632473,1.54316303,-2.34509868,7.25854857e-05,5.74657373,-3.23545380,-1,-0.9998944358510926
8.94337331e+02,2.49999974,-2.35351168e-10,2.62142893,3.64667080,1.54005002,-2.34509868,7.22943709e-05,5.74957344,-3.22647184,-1,-0.9998808563691451
9.38365192e+02,2.49999973,-2.31038248e-10,2.61641179,3.64702181,1.53683944,-2.34509868,7.20342579e-05,5.75266768,-3.21720669,-1,-0.9998665659191622
9.84413438e+02,2.49999972,-2.26613701e-10,2.61124956,3.64737997,1.53354200,-2.34509868,7.17458800e-05,5.75584618,-3.20768854,-1,-0.9998516196978079
1.03266534e+03,2.49999971,-2.22131563e-10,2.60597202,3.64775521,1.53015274,-2.34509868,7.14447127e-05,5.75911324,-3.19790461,-1,-0.9998359582194518
1.08345390e+03,2.49999970,-2.17648484e-10,2.60077747,3.64820354,1.52665880,-2.34509868,7.11515591e-05,5.76248100,-3.18781693,-1,-0.9998194733991607
1.13646291e+03,2.49999969,-2.13071066e-10,2.59520116,3.64859873,1.52308027,-2.34509868,7.08263999e-05,5.76593170,-3.17747959,-1,-0.9998022678709146
1.19234497e+03,2.49999968,-2.08538920e-10,2.58958059,3.64903627,1.51939490,-2.34509868,7.05198548e-05,5.76948558,-3.16683274,-1,-0.9997841298154825
1.25068621e+03,2.49999967,-2.04088092e-10,2.58383720,3.64948707,1.51562161,-2.34509868,7.02419735e-05,5.77312457,-3.15593149,-1,-0.9997651935657255
1.31208438e+03,2.49999965,-1.99489552e-10,2.57783473,3.64992449,1.51174553,-2.34509868,6.99107245e-05,5.77686372,-3.14472784,-1,-0.9997452651054846
1.37636256e+03,2.49999964,-1.94910665e-10,2.57189860,3.65042615,1.50777415,-2.34509868,6.95866430e-05,5.78069486,-3.13325023,-1,-0.9997244018589988
1.44367735e+03,2.49999963,-1.90410977e-10,2.56556704,3.65087494,1.50371079,-2.34509868,6.92826452e-05,5.78461627,-3.12150095,-1,-0.9997025529974425
1.51446136e+03,2.49999961,-1.85840320e-10,2.55919234,3.65136436,1.49954460,-2.34509868,6.89483087e-05,5.78863735,-3.10945417,-1,-0.9996795781053737
1.58855413e+03,2.49999960,-1.81230152e-10,2.55255978,3.65183509,1.49528686,-2.34509868,6.85887303e-05,5.79274788,-3.09713920,-1,-0.9996555292644866
1.66620028e+03,2.49999959,-1.76667246e-10,2.54598000,3.65236722,1.49093271,-2.34509868,6.82403214e-05,5.79695118,-3.08454457,-1,-0.9996303270766506
1.74760885e+03,2.49999957,-1.72106726e-10,2.53903734,3.65285581,1.48648419,-2.34509868,6.78763894e-05,5.80124740,-3.07167204,-1,-0.9996039036921993
1.83308170e+03,2.49999956,-1.67616846e-10,2.53192695,3.65335058,1.48193947,-2.34509868,6.75245424e-05,5.80563706,-3.05851886,-1,-0.9995761611341898
1.92267070e+03,2.49999954,-1.63110923e-10,2.52481386,3.65389203,1.47730002,-2.34509868,6.71528353e-05,5.81011860,-3.04508871,-1,-0.9995470825667908
2.01656239e+03,2.49999953,-1.58636861e-10,2.51744472,3.65441504,1.47256944,-2.34509868,6.67725803e-05,5.81468933,-3.03139157,-1,-0.9995166074433284
2.11498798e+03,2.49999951,-1.54180617e-10,2.51000707,3.65496726,1.46774616,-2.34509868,6.63801571e-05,5.81935045,-3.01742101,-1,-0.9994846607182549
2.21816176e+03,2.49999950,-1.49819131e-10,2.50237158,3.65551531,1.46283232,-2.34509867,6.60039247e-05,5.82410032,-3.00318426,-1,-0.999451172837873
2.32630786e+03,2.49999948,-1.45481057e-10,2.49454874,3.65606062,1.45783028,-2.34509867,6.56112868e-05,5.82893716,-2.98868491,-1,-0.999416071054643
2.43967034e+03,2.49999947,-1.41182100e-10,2.48663349,3.65662707,1.45273975,-2.34509867,6.52089790e-05,5.83386083,-2.97392344,-1,-0.9993792761521973
2.55846343e+03,2.49999945,-1.36924426e-10,2.47851795,3.65718626,1.44756361,-2.34509867,6.47935587e-05,5.83886937,-2.95891055,-1,-0.9993407185963132
2.68302523e+03,2.49999943,-1.32783177e-10,2.47044382,3.65780040,1.44229826,-2.34509867,6.44056020e-05,5.84396504,-2.94363521,-1,-0.9993002886473614
2.81369667e+03,2.49999942,-1.28626629e-10,2.46201087,3.65836650,1.43694958,-2.34509867,6.39689629e-05,5.84914326,-2.92811422,-1,-0.9992578756471586
2.95064697e+03,2.49999940,-1.24588844e-10,2.45367953,3.65900042,1.43151609,-2.34509867,6.35599380e-05,5.85440361,-2.91234573,-1,-0.9992134246707122
3.09404096e+03,2.49999938,-1.20594817e-10,2.44492822,3.65956779,1.42600569,-2.34509867,6.31272819e-05,5.85973980,-2.89634975,-1,-0.9991668822179242
3.24439305e+03,2.49999936,-1.16722368e-10,2.43636751,3.66022479,1.42041133,-2.34509867,6.27252624e-05,5.86515732,-2.88010610,-1,-0.9991180813229186
3.40211726e+03,2.49999935,-1.12862385e-10,2.42743401,3.66082703,1.41474010,-2.34509867,6.22790722e-05,5.87065101,-2.86363086,-1,-0.999066887604148
3.56729271e+03,2.49999933,-1.09107104e-10,2.41848747,3.66146386,1.40899317,-2.34509866,6.18484766e-05,5.87621915,-2.84693216,-1,-0.9990132753810459
3.74043612e+03,2.49999931,-1.05419342e-10,2.40939493,3.66209591,1.40318281,-2.34509866,6.14041383e-05,5.88173917,-2.83023496,-1,-0.9989570769379628
3.92205538e+03,2.49999929,-1.01862071e-10,2.40034887,3.66277707,1.39729745,-2.34509866,6.09902738e-05,5.88742397,-2.81316832,-1,-0.9988981274252673
4.11206668e+03,2.49999927,-9.83364757e-11,2.39092045,3.66339848,1.39134041,-2.34509865,6.05405776e-05,5.89319134,-2.79586322,-1,-0.9988364540457941
4.31159997e+03,2.49999925,-9.48781310e-11,2.38156285,3.66407732,1.38530394,-2.34509865,6.00839535e-05,5.89904695,-2.77830152,-1,-0.9987716900432758
4.52032599e+03,2.49999923,-9.15437710e-11,2.37197232,3.66472587,1.37921158,-2.34509864,5.96466091e-05,5.90495379,-2.76058398,-1,-0.998703942288077
4.73947681e+03,2.49999921,-8.82733938e-11,2.36236480,3.66540688,1.37304580,-2.34509864,5.91968327e-05,5.91093575,-2.74263893,-1,-0.9986328108780834
4.96876442e+03,2.49999919,-8.50531916e-11,2.35251310,3.66605697,1.36681977,-2.34509863,5.87191410e-05,5.91697740,-2.72451358,-1,-0.9985583892948405
5.20935882e+03,2.49999917,-8.19482799e-11,2.34271536,3.66675439,1.36052606,-2.34509862,5.82648915e-05,5.92308755,-2.70618048,-1,-0.998480297782755
5.46129031e+03,2.49999915,-7.89348950e-11,2.33265728,3.66741653,1.35417273,-2.34509862,5.78103209e-05,5.92925843,-2.68766632,-1,-0.9983985265071308
5.72527908e+03,2.49999913,-7.60000197e-11,2.32265694,3.66812159,1.34776244,-2.34509861,5.73548192e-05,5.93548637,-2.66898362,-1,-0.9983128417105483
6.00207807e+03,2.49999911,-7.31319743e-11,2.31234213,3.66877464,1.34129894,-2.34509860,5.68760546e-05,5.94176814,-2.65013981,-1,-0.9982229990056772
6.29203795e+03,2.49999909,-7.03512327e-11,2.30212500,3.66948166,1.33477633,-2.34509859,5.64068114e-05,5.94810877,-2.63111523,-1,-0.9981288845729501
6.59582655e+03,2.49999907,-6.76807307e-11,2.29184030,3.67019792,1.32820147,-2.34509859,5.59593398e-05,5.95450123,-2.61193310,-1,-0.9980302816498217
6.91434039e+03,2.49999905,-6.50657257e-11,2.28122848,3.67085489,1.32158161,-2.34509857,5.54790990e-05,5.96093991,-2.59261244,-1,-0.9979268992461341
7.24817520e+03,2.49999903,-6.25355279e-11,2.27091366,3.67161496,1.31490406,-2.34509856,5.50155845e-05,5.96743575,-2.57312138,-1,-0.997818544001375
7.59770365e+03,2.49999901,-6.00886862e-11,2.26019307,3.67229634,1.30818100,-2.34509856,5.45450636e-05,5.97397900,-2.55349022,-1,-0.9977050949552734
7.96385198e+03,2.49999899,-5.77179645e-11,2.24940734,3.67298198,1.30141687,-2.34509855,5.40709259e-05,5.98056445,-2.53373293,-1,-0.9975862514712303
8.34799128e+03,2.49999897,-5.54151237e-11,2.23865762,3.67369948,1.29460700,-2.34509854,5.35890353e-05,5.98719648,-2.51383504,-1,-0.9974615685243767
8.75044607e+03,2.49999894,-5.31921236e-11,2.22784866,3.67442361,1.28775426,-2.34509853,5.31111234e-05,5.99387173,-2.49380449,-1,-0.9973309407828451
9.17200781e+03,2.49999892,-5.10681023e-11,2.21686675,3.67512343,1.28086368,-2.34509852,5.26538224e-05,6.00058540,-2.47365799,-1,-0.9971941113565825
9.61382677e+03,2.49999890,-4.90035782e-11,2.20594918,3.67586013,1.27393147,-2.34509852,5.21881776e-05,6.00734170,-2.45338320,-1,-0.9970507068939083
1.00765683e+04,2.49999888,-4.70066331e-11,2.19478225,3.67655002,1.26696825,-2.34509851,5.17111241e-05,6.01413084,-2.43301134,-1,-0.9969005114372291
1.05614176e+04,2.49999886,-4.50781400e-11,2.18355363,3.67724151,1.25997095,-2.34509851,5.12321473e-05,6.02095616,-2.41253422,-1,-0.9967431402973747
1.10696597e+04,2.49999883,-4.32346932e-11,2.17245661,3.67798388,1.25293770,-2.34509850,5.07804096e-05,6.02781805,-2.39194704,-1,-0.9965781763826098
1.16021504e+04,2.49999881,-4.14389271e-11,2.16116246,3.67869452,1.24586934,-2.34509849,5.03036139e-05,6.03471623,-2.37124917,-1,-0.9964053419195696
1.21603709e+04,2.49999879,-3.97286456e-11,2.14990791,3.67942739,1.23877633,-2.34509849,4.98542610e-05,6.04163946,-2.35047482,-1,-0.9962241561441646
1.27451788e+04,2.49999877,-3.80670717e-11,2.13852408,3.68014061,1.23165798,-2.34509849,4.93853253e-05,6.04858920,-2.32962373,-1,-0.9960343406987904
1.33579424e+04,2.49999874,-3.64702559e-11,2.12708992,3.68085374,1.22451462,-2.34509848,4.89222520e-05,6.05556531,-2.30869234,-1,-0.9958354514641493
1.39999613e+04,2.49999872,-3.49383834e-11,2.11557467,3.68155765,1.21734918,-2.34509848,4.84653416e-05,6.06256533,-2.28769223,-1,-0.9956270666194128
1.46727821e+04,2.49999870,-3.34670201e-11,2.10406974,3.68227385,1.21016433,-2.34509848,4.80156840e-05,6.06958664,-2.26662469,-1,-0.9954086841731274
1.53780050e+04,2.49999867,-3.20607104e-11,2.09262237,3.68301258,1.20296318,-2.34509848,4.75844050e-05,6.07662564,-2.24550428,-1,-0.9951797847364892
1.61166913e+04,2.49999865,-3.06947585e-11,2.08098428,3.68370878,1.19575173,-2.34509848,4.71267095e-05,6.08367694,-2.22434150,-1,-0.9949400238354714
1.68913562e+04,2.49999863,-2.93930630e-11,2.06963489,3.68448400,1.18852660,-2.34509848,4.67014191e-05,6.09074296,-2.20313986,-1,-0.9946885850929215
1.77025688e+04,2.49999861,-2.81581141e-11,2.05799047,3.68518645,1.18129949,-2.34509848,4.62912001e-05,6.09781334,-2.18192749,-1,-0.9944252837918239
1.85526769e+04,2.49999858,-2.69632736e-11,2.04625588,3.68586416,1.17407677,-2.34509847,4.58623830e-05,6.10488146,-2.16072407,-1,-0.9941493578892878
1.94438734e+04,2.49999856,-2.58140966e-11,2.03459881,3.68655123,1.16687410,-2.34509847,4.54294910e-05,6.11193198,-2.13957128,-1,-0.9938600956194665
2.03777596e+04,2.49999854,-2.47164843e-11,2.02288090,3.68720957,1.15969845,-2.34509847,4.49980886e-05,6.11895872,-2.11848989,-1,-0.9935569772365209
2.13577472e+04,2.49999851,-2.36799648e-11,2.01163127,3.68797235,1.15254810,-2.34509847,4.46165555e-05,6.12596178,-2.09747849,-1,-0.9932388953796322
2.23843830e+04,2.49999849,-2.26937763e-11,2.00009763,3.68863426,1.14545744,-2.34509847,4.42248082e-05,6.13290802,-2.07664010,-1,-0.9929056725698615
2.34610066e+04,2.49999846,-2.17493236e-11,1.98864517,3.68927902,1.13844169,-2.34509847,4.38240912e-05,6.13978222,-2.05601665,-1,-0.9925562248484228
2.45902373e+04,2.49999844,-2.08536469e-11,1.97733933,3.68991498,1.13151686,-2.34509847,4.34313889e-05,6.14656856,-2.03565498,-1,-0.992189702049653
2.57752201e+04,2.49999842,-2.00131103e-11,1.96632809,3.69056116,1.12471888,-2.34509847,4.30640624e-05,6.15323219,-2.01566060,-1,-0.9918050833775338
2.70188508e+04,2.49999839,-1.92249101e-11,1.95562287,3.69120863,1.11807133,-2.34509847,4.27178245e-05,6.15975002,-1.99610433,-1,-0.9914014289207429
2.83233892e+04,2.49999837,-1.84848500e-11,1.94499307,3.69177899,1.11161570,-2.34509847,4.23649628e-05,6.16608150,-1.97710827,-1,-0.9909780051992033
2.96929960e+04,2.49999834,-1.77980864e-11,1.93489613,3.69237240,1.10538042,-2.34509847,4.20432487e-05,6.17219786,-1.95875881,-1,-0.990533461743601
3.11315185e+04,2.49999832,-1.71628530e-11,1.92506321,3.69289885,1.09941106,-2.34509847,4.17266457e-05,6.17805484,-1.94118940,-1,-0.9900665498071886
3.26434938e+04,2.49999829,-1.65848313e-11,1.91599432,3.69347432,1.09372566,-2.34509847,4.14631584e-05,6.18363391,-1.92445169,-1,-0.9895757967497072
3.42305418e+04,2.49999827,-1.60507070e-11,1.90716126,3.69394598,1.08836582,-2.34509847,4.11842958e-05,6.18889487,-1.90866990,-1,-0.9890606767881776
3.58974459e+04,2.49999824,-1.55644754e-11,1.89903054,3.69443152,1.08332939,-2.34509847,4.09378032e-05,6.19383904,-1.89383871,-1,-0.9885196373389198
3.76505623e+04,2.49999821,-1.51288261e-11,1.89135700,3.69486393,1.07862780,-2.34509847,4.07182407e-05,6.19845540,-1.87998830,-1,-0.9879506153228718
3.94910586e+04,2.49999819,-1.47285855e-11,1.88412955,3.69525565,1.07423063,-2.34509847,4.05026278e-05,6.20277345,-1.86703297,-1,-0.9873532317634258
4.14230719e+04,2.49999816,-1.43627592e-11,1.87735336,3.69563422,1.07008539,-2.34509847,4.03098082e-05,6.20684476,-1.85481808,-1,-0.9867261438512954
4.34497060e+04,2.49999813,-1.40230085e-11,1.87090005,3.69599441,1.06613835,-2.34509847,4.01296503e-05,6.21072206,-1.84318527,-1,-0.9860683441630524
4.55810454e+04,2.49999810,-1.37031067e-11,1.86460670,3.69632704,1.06232642,-2.34509847,3.99542917e-05,6.21446725,-1.83195054,-1,-0.9853765594976015
4.78165556e+04,2.49999807,-1.33965756e-11,1.85844645,3.69667838,1.05854362,-2.34509847,3.97996579e-05,6.21818415,-1.82079957,-1,-0.9846509633415791
5.01567785e+04,2.49999804,-1.30962212e-11,1.85221786,3.69703986,1.05470635,-2.34509847,3.96580869e-05,6.22195535,-1.80948706,-1,-0.9838913798064757
5.26125288e+04,2.49999801,-1.27882715e-11,1.84563333,3.69738740,1.05071902,-2.34509847,3.94954904e-05,6.22587466,-1.79773060,-1,-0.9830942986847563
5.51880514e+04,2.49999798,-1.24709876e-11,1.83880458,3.69780543,1.04646859,-2.34509847,3.93481995e-05,6.23005293,-1.78519794,-1,-0.9822583421776874
5.78812522e+04,2.49999794,-1.21326238e-11,1.83121516,3.69820873,1.04186727,-2.34509847,3.91649234e-05,6.23457676,-1.77162897,-1,-0.9813841899828656
6.06987929e+04,2.49999791,-1.17676638e-11,1.82280289,3.69864142,1.03679576,-2.34509847,3.89546027e-05,6.23956307,-1.75667119,-1,-0.9804696798628237
6.36444201e+04,2.49999788,-1.13696206e-11,1.81349522,3.69914531,1.03113415,-2.34509847,3.87180954e-05,6.24512996,-1.73997189,-1,-0.9795135957557616
6.67165597e+04,2.49999784,-1.09369770e-11,1.80303266,3.69970787,1.02477774,-2.34509847,3.84520039e-05,6.25138070,-1.72122207,-1,-0.9785164485790122
6.99208420e+04,2.49999781,-1.04691295e-11,1.79121293,3.70033856,1.01760649,-2.34509847,3.81586101e-05,6.25843441,-1.70005987,-1,-0.9774764108642701
7.32527517e+04,2.49999777,-9.96657015e-12,1.77795017,3.70102790,1.00959644,-2.34509847,3.78215528e-05,6.26631560,-1.67641776,-1,-0.9763949481760059
7.67182493e+04,2.49999774,-9.44466841e-12,1.76354066,3.70183722,1.00077305,-2.34509847,3.74927833e-05,6.27499899,-1.65037070,-1,-0.9752701258704468
8.03245490e+04,2.49999771,-8.91380495e-12,1.74811758,3.70271175,9.91312447e-01,-2.34509847,3.71480504e-05,6.28431096,-1.62243476,-1,-0.9740996023810953
8.40799875e+04,2.49999768,-8.39147207e-12,1.73172944,3.70352432,9.81493237e-01,-2.34509847,3.67562144e-05,6.29397859,-1.59343328,-1,-0.9728806718032885
8.80078247e+04,2.49999764,-7.89332738e-12,1.71522819,3.70436077,9.71569714e-01,-2.34509847,3.63700996e-05,6.30375223,-1.56411609,-1,-0.9716057844984568
9.21210126e+04,2.49999761,-7.42758144e-12,1.69875998,3.70517491,9.61707316e-01,-2.34509847,3.59905968e-05,6.31346694,-1.53496684,-1,-0.9702707365397232
9.64351269e+04,2.49999758,-6.99930781e-12,1.68270179,3.70603936,9.51949329e-01,-2.34554179,3.56694967e-05,6.32297945,-1.50599942,-1,-0.9688704724064074
1.00954664e+05,2.49999755,-6.59964329e-12,1.66676276,3.70687416,9.42310214e-01,-2.34554975,3.53545672e-05,6.33232228,-1.47701593,-1,-0.9674035326685522
1.05687491e+05,2.49999752,-6.22375394e-12,1.65078847,3.70764960,9.32772192e-01,-2.34561665,3.50143271e-05,6.34134830,-1.44824499,-1,-0.9658673638430557
1.10652016e+05,2.49999749,-5.87330900e-12,1.63523097,3.70848003,9.23332586e-01,-2.34575735,3.47117105e-05,6.35015871,-1.41962386,-1,-0.9642559910761244
1.15850476e+05,2.49999746,-5.54655006e-12,1.61959623,3.70923498,9.14005314e-01,-2.34577160,3.43948291e-05,6.35878249,-1.39115286,-1,-0.9625686882880464
1.21300201e+05,2.49999743,-5.24040307e-12,1.60421286,3.71000231,9.04778962e-01,-2.34585090,3.40903408e-05,6.36723328,-1.36278352,-1,-0.9607998305519558
1.27008487e+05,2.49999740,-4.95430439e-12,1.58885644,3.71072478,8.95655807e-01,-2.34583892,3.37806654e-05,6.37551705,-1.33451330,-1,-0.9589470497509214
1.32993926e+05,2.49999738,-4.68618324e-12,1.57383808,3.71148685,8.86622489e-01,-2.34585208,3.34966295e-05,6.38365267,-1.30629227,-1,-0.9570043113413597
1.39265041e+05,2.49999735,-4.43547412e-12,1.55888890,3.71221952,8.77682561e-01,-2.34594486,3.32138293e-05,6.39164352,-1.27812191,-1,-0.9549688489498328
1.45836185e+05,2.49999732,-4.19993192e-12,1.54394808,3.71290535,8.68840498e-01,-2.34588513,3.29176770e-05,6.39949118,-1.24999831,-1,-0.9528360039164843
1.52721916e+05,2.49999729,-3.97735772e-12,1.52918093,3.71359019,8.60087230e-01,-2.34584031,3.26175290e-05,6.40721081,-1.22188286,-1,-0.9506010510430845
1.59936988e+05,2.49999726,-3.77020560e-12,1.51458306,3.71427466,8.51419363e-01,-2.34571609,3.23420415e-05,6.41481149,-1.19375751,-1,-0.9482592015142273
1.67501260e+05,2.49999724,-3.57628101e-12,1.50025992,3.71498911,8.42828888e-01,-2.34610056,3.20894840e-05,6.42230794,-1.16559365,-1,-0.9458040095467255
1.75428826e+05,2.49999721,-3.39300413e-12,1.48594789,3.71566083,8.34329429e-01,-2.34591520,3.18223909e-05,6.42969364,-1.13740914,-1,-0.9432309005462771
1.83733855e+05,2.49999718,-3.22146466e-12,1.47179493,3.71633243,8.25909764e-01,-2.34586725,3.15694475e-05,6.43698753,-1.10917014,-1,-0.9405352755752727
1.92435065e+05,2.49999715,-3.05926898e-12,1.45768147,3.71697022,8.17577455e-01,-2.34563699,3.13031281e-05,6.44419048,-1.08087965,-1,-0.9377110591933729
2.01564572e+05,2.49999713,-2.90730096e-12,1.44404380,3.71769052,8.09318016e-01,-2.34678629,3.10752613e-05,6.45132213,-1.05247852,-1,-0.9347478272718276
2.11114225e+05,2.49999710,-2.76406657e-12,1.43011401,3.71829157,8.01151012e-01,-2.34539079,3.08228220e-05,6.45837384,-1.02401928,-1,-0.9316482254412709
2.21137322e+05,2.49999707,-2.62896836e-12,1.41649968,3.71893137,7.93064258e-01,-2.34539086,3.05792346e-05,6.46536209,-9.95436839e-01,-1,-0.928394954373825
2.31632673e+05,2.49999705,-2.50201003e-12,1.40299434,3.71955573,7.85062861e-01,-2.34528935,3.03415375e-05,6.47229063,-9.66746250e-01,-1,-0.9249884003166319
2.42634808e+05,2.49999702,-2.38411269e-12,1.38989424,3.72024048,7.77143313e-01,-2.34522517,3.01560491e-05,6.47917500,-9.37918538e-01,-1,-0.9214173556110251
2.54165663e+05,2.49999699,-2.27083035e-12,1.37673122,3.72086705,7.69308668e-01,-2.34518959,2.99261787e-05,6.48601960,-9.08931098e-01,-1,-0.9176747003264943
2.66262358e+05,2.49999697,-2.16476295e-12,1.36385934,3.72152257,7.61561676e-01,-2.34530655,2.97237688e-05,6.49283208,-8.79769091e-01,-1,-0.9137483861488288
