star_age,star_mass,star_mdot,log_L,log_Teff,log_R,log_surf_z,v_wind_Km_per_s,log_center_T,log_center_Rho,phase,x
3.65407352e+02,3.79999975,-5.87293629e-10,2.99615704,3.63823365,1.74428838,-2.34509852,7.06097085e-05,5.72113344,-3.66110677,-1,-1.0
3.83147763e+02,3.79999974,-5.80087248e-10,2.99284102,3.63847163,1.74215440,-2.34509852,7.04259369e-05,5.72320592,-3.65489750,-1,-0.9999868267971986
4.01003169e+02,3.79999973,-5.72876147e-10,3.00056526,3.64162461,1.73971057,-2.34509852,8.24695617e-05,5.72532756,-3.64854619,-1,-0.999973568204467
4.20111092e+02,3.79999972,-5.79242526e-10,3.00103570,3.64294785,1.73729931,-2.34509852,8.84679455e-05,5.72758486,-3.64178427,-1,-0.9999593795509577
4.40370193e+02,3.79999971,-5.74596621e-10,2.99740508,3.64325629,1.73486712,-2.34509852,8.87422922e-05,5.72994867,-3.63470159,-1,-0.9999443360862913
4.61717599e+02,3.79999970,-5.66935660e-10,2.99357200,3.64355834,1.73234648,-2.34509852,8.85800985e-05,5.73239911,-3.62735979,-1,-0.9999284844970286
4.84055468e+02,3.79999969,-5.58968026e-10,2.98968229,3.64388567,1.72974695,-2.34509852,8.83869405e-05,5.73492596,-3.61978887,-1,-0.9999118974360813
5.07446263e+02,3.79999967,-5.50458283e-10,2.98557159,3.64419836,1.72706623,-2.34509852,8.81236858e-05,5.73753238,-3.61197940,-1,-0.9998945285213352
5.31941077e+02,3.79999966,-5.41841439e-10,2.98132592,3.64451860,1.72430291,-2.34509852,8.78575991e-05,5.74021930,-3.60392774,-1,-0.9998763398135085
5.57579370e+02,3.79999965,-5.33078246e-10,2.97694943,3.64484762,1.72145662,-2.34509852,8.75812035e-05,5.74298723,-3.59563532,-1,-0.9998573020114434
5.84517066e+02,3.79999963,-5.24086464e-10,2.97262715,3.64523708,1.71851657,-2.34509852,8.72828395e-05,5.74584565,-3.58707063,-1,-0.9998372993332411
6.12781884e+02,3.79999962,-5.14996253e-10,2.96794916,3.64558218,1.71548737,-2.34509852,8.69783365e-05,5.74879169,-3.57824371,-1,-0.9998163111960633
6.42347318e+02,3.79999960,-5.05723354e-10,2.96338612,3.64599997,1.71237028,-2.34509852,8.66557711e-05,5.75182227,-3.56916168,-1,-0.9997943572820309
6.73261299e+02,3.79999959,-4.96646972e-10,2.95860843,3.64640739,1.70916659,-2.34509852,8.63766220e-05,5.75493781,-3.55982432,-1,-0.9997714019998162
7.05820955e+02,3.79999957,-4.87270058e-10,2.95354840,3.64679412,1.70586310,-2.34509852,8.60536726e-05,5.75815131,-3.55019430,-1,-0.9997472247160074
7.39812930e+02,3.79999956,-4.77872578e-10,2.94832681,3.64718202,1.70247652,-2.34509852,8.57327835e-05,5.76144608,-3.54031831,-1,-0.9997219838588314
7.75473688e+02,3.79999954,-4.68234244e-10,2.94295727,3.64757993,1.69899593,-2.34509852,8.53743390e-05,5.76483239,-3.53016733,-1,-0.999695503841137
8.12866367e+02,3.79999952,-4.58619113e-10,2.93770447,3.64805530,1.69541878,-2.34509852,8.50280158e-05,5.76831200,-3.51973826,-1,-0.9996677377795866
8.51978690e+02,3.79999950,-4.49156971e-10,2.93217131,3.64850571,1.69175139,-2.34509852,8.47116503e-05,5.77188009,-3.50904196,-1,-0.9996386947905086
8.93020151e+02,3.79999949,-4.39271734e-10,2.92636220,3.64893493,1.68798840,-2.34509852,8.43146064e-05,5.77554231,-3.49806386,-1,-0.9996082193134175
9.36012744e+02,3.79999947,-4.29626471e-10,2.92046802,3.64938920,1.68413277,-2.34509852,8.39629847e-05,5.77929472,-3.48681541,-1,-0.9995762950165933
9.80984050e+02,3.79999945,-4.19835083e-10,2.91437571,3.64983873,1.68018754,-2.34509852,8.35784972e-05,5.78313488,-3.47530381,-1,-0.9995429014196704
1.02824453e+03,3.79999943,-4.10084699e-10,2.90825696,3.65033160,1.67614244,-2.34509852,8.31995025e-05,5.78707207,-3.46350310,-1,-0.9995078079887724
1.07764863e+03,3.79999941,-4.00328501e-10,2.90197706,3.65082925,1.67200718,-2.34509852,8.28127993e-05,5.79109765,-3.45143583,-1,-0.9994711228055192
1.12936610e+03,3.79999939,-3.90589531e-10,2.89552987,3.65133074,1.66778062,-2.34509852,8.24203314e-05,5.79521248,-3.43909887,-1,-0.9994327198214686
1.18369135e+03,3.79999937,-3.80947968e-10,2.88882506,3.65181589,1.66345789,-2.34509852,8.20338909e-05,5.79942229,-3.42647759,-1,-0.999392380421469
1.24057159e+03,3.79999935,-3.71358129e-10,2.88230163,3.65239385,1.65904026,-2.34509852,8.16542650e-05,5.80372337,-3.41358114,-1,-0.9993501438049153
1.30010082e+03,3.79999932,-3.61722329e-10,2.87534583,3.65290769,1.65453468,-2.34509852,8.12422039e-05,5.80811213,-3.40042085,-1,-0.9993059401717864
1.36245720e+03,3.79999930,-3.52164508e-10,2.86832897,3.65345203,1.64993757,-2.34509852,8.08315787e-05,5.81258998,-3.38699392,-1,-0.9992596372287654
1.42776940e+03,3.79999928,-3.42642637e-10,2.86108110,3.65398311,1.64525148,-2.34509852,8.04054967e-05,5.81715562,-3.37330158,-1,-0.9992111394315044
1.49619786e+03,3.79999926,-3.33236158e-10,2.85380923,3.65455386,1.64047405,-2.34509852,7.99866008e-05,5.82181001,-3.35934349,-1,-0.9991603276447332
1.56788651e+03,3.79999923,-3.23893529e-10,2.84631844,3.65511367,1.63560903,-2.34509852,7.95547590e-05,5.82655090,-3.34512411,-1,-0.9991070949927383
1.64300712e+03,3.79999921,-3.14790092e-10,2.83890066,3.65573783,1.63065181,-2.34509852,7.91616707e-05,5.83138161,-3.33063531,-1,-0.9990513139271197
1.72166699e+03,3.79999919,-3.05693383e-10,2.83109051,3.65630499,1.62561243,-2.34509852,7.87312077e-05,5.83629407,-3.31590280,-1,-0.9989929047718954
1.80406133e+03,3.79999916,-2.96601687e-10,2.82319803,3.65689168,1.62049280,-2.34509852,7.82674300e-05,5.84128506,-3.30093419,-1,-0.9989317225732132
1.89036569e+03,3.79999914,-2.87769775e-10,2.81519877,3.65749055,1.61529544,-2.34509852,7.78339534e-05,5.84635240,-3.28573702,-1,-0.9988676369758206
1.98074781e+03,3.79999911,-2.78989301e-10,2.80712720,3.65811831,1.61000413,-2.34509852,7.73829437e-05,5.85151168,-3.27026266,-1,-0.9988005234238077
2.07537168e+03,3.79999908,-2.70349860e-10,2.79899263,3.65877221,1.60462905,-2.34509852,7.69333501e-05,5.85675335,-3.25454000,-1,-0.9987302601458394
2.17442481e+03,3.79999906,-2.61943379e-10,2.79054830,3.65938714,1.59917701,-2.34509852,7.64994749e-05,5.86207166,-3.23858744,-1,-0.9986567079057249
2.27830588e+03,3.79999903,-2.53590345e-10,2.78197672,3.66000983,1.59364585,-2.34509852,7.60329621e-05,5.86746798,-3.22239757,-1,-0.9985795706622679
2.38703736e+03,3.79999901,-2.45362381e-10,2.77333397,3.66065216,1.58803982,-2.34509852,7.55559913e-05,5.87293796,-3.20598762,-1,-0.998498831730293
2.50082225e+03,3.79999898,-2.37396016e-10,2.76474836,3.66134797,1.58235539,-2.34509852,7.51178715e-05,5.87848435,-3.18934705,-1,-0.9984143403714567
2.62012814e+03,3.79999895,-2.29475098e-10,2.75580817,3.66199099,1.57659926,-2.34509852,7.46273959e-05,5.88410277,-3.17248979,-1,-0.9983257493752069
2.74494292e+03,3.79999892,-2.21730143e-10,2.74687436,3.66267225,1.57076983,-2.34509852,7.41441009e-05,5.88979313,-3.15541673,-1,-0.9982330677338656
2.87575614e+03,3.79999889,-2.14150153e-10,2.73778705,3.66335080,1.56486907,-2.34509852,7.36525863e-05,5.89555404,-3.13813080,-1,-0.9981359319304074
3.01260218e+03,3.79999887,-2.06790177e-10,2.72858944,3.66403444,1.55890300,-2.34509852,7.31758216e-05,5.90137271,-3.12066348,-1,-0.9980343164358461
3.15605005e+03,3.79999884,-1.99607644e-10,2.71929523,3.66472067,1.55288343,-2.34509852,7.26905945e-05,5.90717453,-3.10316168,-1,-0.9979277987298618
3.30625873e+03,3.79999881,-1.92649153e-10,2.70997733,3.66543490,1.54679602,-2.34509852,7.22264878e-05,5.91309911,-3.08535722,-1,-0.9978162607613125
3.46341395e+03,3.79999878,-1.85828628e-10,2.70033664,3.66609654,1.54065239,-2.34509852,7.17351202e-05,5.91909513,-3.06735696,-1,-0.9976995646157522
3.62805956e+03,3.79999875,-1.79260137e-10,2.69091783,3.66684477,1.53444652,-2.34509852,7.12860974e-05,5.92515694,-3.04916290,-1,-0.9975773064555049
3.80053700e+03,3.79999872,-1.72747148e-10,2.68127222,3.66757685,1.52815957,-2.34509851,7.07891662e-05,5.93130163,-3.03072187,-1,-0.9974492327431324
3.98107542e+03,3.79999869,-1.66464551e-10,2.67147949,3.66829569,1.52182552,-2.34509851,7.03060595e-05,5.93749223,-3.01214352,-1,-0.9973151733225191
4.17008222e+03,3.79999866,-1.60343728e-10,2.66161440,3.66902529,1.51543378,-2.34509851,6.98173658e-05,5.94374121,-2.99339422,-1,-0.9971748256774029
4.36790507e+03,3.79999863,-1.54358807e-10,2.65151172,3.66972478,1.50898345,-2.34509851,6.93038342e-05,5.95004975,-2.97446161,-1,-0.9970279316442376
4.57509401e+03,3.79999859,-1.48612294e-10,2.64149445,3.67047040,1.50248358,-2.34509851,6.88244068e-05,5.95640723,-2.95538205,-1,-0.996874082788942
4.79203518e+03,3.79999856,-1.42954411e-10,2.63132587,3.67120207,1.49593595,-2.34509851,6.82996024e-05,5.96281269,-2.93615911,-1,-0.9967129923819396
5.01914890e+03,3.79999853,-1.37506561e-10,2.62099215,3.67191501,1.48934321,-2.34509851,6.77857029e-05,5.96926410,-2.91679858,-1,-0.9965443483131782
5.25704907e+03,3.79999850,-1.32260811e-10,2.61074670,3.67268108,1.48268834,-2.34509851,6.73007912e-05,5.97577776,-2.89725185,-1,-0.9963676947291155
5.50610811e+03,3.79999847,-1.27169652e-10,2.60035660,3.67342771,1.47600003,-2.34509851,6.68016875e-05,5.98232569,-2.87760432,-1,-0.996182755088008
5.76679122e+03,3.79999844,-1.22210026e-10,2.58976328,3.67414353,1.46927174,-2.34509850,6.62769899e-05,5.98891500,-2.85783025,-1,-0.9959891839540063
6.03983158e+03,3.79999840,-1.17462569e-10,2.57923056,3.67489593,1.46250058,-2.34509850,6.57863810e-05,5.99554777,-2.83792763,-1,-0.9957864369017962
6.32554318e+03,3.79999837,-1.12800203e-10,2.56842588,3.67559824,1.45569362,-2.34509850,6.52414725e-05,6.00221730,-2.81791426,-1,-0.9955742807770306
6.62509858e+03,3.79999834,-1.08469085e-10,2.55804740,3.67643657,1.44882772,-2.34509850,6.48335834e-05,6.00894472,-2.79772698,-1,-0.995351844891275
6.93852133e+03,3.79999830,-1.04163464e-10,2.54727063,3.67718600,1.44194046,-2.34509850,6.43299410e-05,6.01569474,-2.77747290,-1,-0.9951191117573968
7.26674600e+03,3.79999827,-1.00007992e-10,2.53656341,3.67797178,1.43501530,-2.34509850,6.38371510e-05,6.02248305,-2.75710354,-1,-0.9948753874072489
7.61024363e+03,3.79999824,-9.59841464e-11,2.52565003,3.67872270,1.42805676,-2.34509849,6.33293931e-05,6.02930607,-2.73662897,-1,-0.9946203220684703
7.96978150e+03,3.79999820,-9.20984645e-11,2.51460117,3.67945833,1.42106108,-2.34509849,6.28182106e-05,6.03616762,-2.71604187,-1,-0.9943533459946753
8.34620416e+03,3.79999817,-8.83193680e-11,2.50353313,3.68020131,1.41404109,-2.34509849,6.22863915e-05,6.04305417,-2.69537772,-1,-0.9940738320623758
8.74052964e+03,3.79999814,-8.47263172e-11,2.49261321,3.68099935,1.40698506,-2.34509849,6.18071800e-05,6.04997697,-2.67460629,-1,-0.9937810243299171
9.15317764e+03,3.79999810,-8.12636213e-11,2.48143769,3.68173986,1.39991627,-2.34509849,6.13128746e-05,6.05691374,-2.65379326,-1,-0.9934746111476301
9.58527550e+03,3.79999807,-7.78960053e-11,2.47029505,3.68250665,1.39281138,-2.34509848,6.08059976e-05,6.06388674,-2.63287260,-1,-0.9931537554053462
1.00378113e+04,3.79999803,-7.46972918e-11,2.45915248,3.68328727,1.38567884,-2.34509848,6.03417399e-05,6.07088897,-2.61186083,-1,-0.9928177234008854
1.05113933e+04,3.79999800,-7.15979958e-11,2.44776002,3.68401478,1.37852761,-2.34509848,5.98494084e-05,6.07791159,-2.59079166,-1,-0.9924660634687064
1.10074513e+04,3.79999796,-6.86137127e-11,2.43650512,3.68478861,1.37135248,-2.34509848,5.93724623e-05,6.08495867,-2.56964746,-1,-0.9920977139059339
1.15268551e+04,3.79999793,-6.57529315e-11,2.42524025,3.68556951,1.36415825,-2.34509848,5.89111069e-05,6.09202525,-2.54844641,-1,-0.9917120288396064
1.20705464e+04,3.79999790,-6.29848213e-11,2.41385666,3.68632792,1.35694965,-2.34509848,5.84316992e-05,6.09910673,-2.52719880,-1,-0.9913083090071712
1.26400625e+04,3.79999786,-6.03408505e-11,2.40264572,3.68713959,1.34972083,-2.34509848,5.79900270e-05,6.10620956,-2.50588577,-1,-0.9908854128812609
1.32362944e+04,3.79999783,-5.78361400e-11,2.39137805,3.68794302,1.34248013,-2.34509848,5.75878257e-05,6.11332644,-2.48453279,-1,-0.9904426788467812
1.38601433e+04,3.79999779,-5.54073325e-11,2.37981726,3.68867912,1.33522753,-2.34509848,5.71482830e-05,6.12045754,-2.46313788,-1,-0.9899794377145928
1.45134498e+04,3.79999776,-5.30663084e-11,2.36822410,3.68940035,1.32798851,-2.34509847,5.66949214e-05,6.12757648,-2.44178257,-1,-0.9894943227408775
1.51977519e+04,3.79999772,-5.08142927e-11,2.35673956,3.69014647,1.32075398,-2.34509847,5.62476434e-05,6.13469159,-2.42043704,-1,-0.9889861918784798
1.59143118e+04,3.79999768,-4.86785495e-11,2.34525046,3.69088531,1.31353176,-2.34509847,5.58290195e-05,6.14179570,-2.39912315,-1,-0.9884541078764776
1.66648218e+04,3.79999765,-4.66183276e-11,2.33381813,3.69162830,1.30632962,-2.34509847,5.54004046e-05,6.14888144,-2.37786485,-1,-0.9878968141117237
1.74509912e+04,3.79999761,-4.46785992e-11,2.32247021,3.69238259,1.29914708,-2.34509847,5.50231851e-05,6.15594975,-2.35665838,-1,-0.987313041337663
1.82741440e+04,3.79999758,-4.28126417e-11,2.31100120,3.69307558,1.29202660,-2.34509847,5.46099293e-05,6.16295873,-2.33563346,-1,-0.9867018064135717
1.91372726e+04,3.79999754,-4.10480272e-11,2.29994205,3.69384378,1.28496062,-2.34509847,5.42539859e-05,6.16991496,-2.31476843,-1,-0.9860608873226059
2.00411224e+04,3.79999751,-3.93705620e-11,2.28870370,3.69452262,1.27798376,-2.34509847,5.38725574e-05,6.17678491,-2.29416005,-1,-0.9853897305654487
2.09891232e+04,3.79999747,-3.77860113e-11,2.27791104,3.69526432,1.27110403,-2.34509847,5.35388916e-05,6.18356040,-2.27383662,-1,-0.9846857893323915
2.19825465e+04,3.79999743,-3.62892569e-11,2.26716924,3.69595570,1.26435036,-2.34509847,5.32015723e-05,6.19021290,-2.25388127,-1,-0.9839481194667651
2.30241569e+04,3.79999740,-3.48931552e-11,2.25664312,3.69661384,1.25777104,-2.34509847,5.28832125e-05,6.19669442,-2.23443828,-1,-0.9831746681053937
2.41163138e+04,3.79999736,-3.35779718e-11,2.24636620,3.69723494,1.25139037,-2.34509847,5.25562237e-05,6.20298112,-2.21558032,-1,-0.982363683267746
2.52618026e+04,3.79999732,-3.23652112e-11,2.23665389,3.69789181,1.24522047,-2.34509847,5.22936170e-05,6.20906095,-2.19734202,-1,-0.9815130966455352
2.64650552e+04,3.79999728,-3.12394715e-11,2.22720672,3.69847323,1.23933405,-2.34509847,5.20128801e-05,6.21486296,-2.17993965,-1,-0.9806196173162739
2.77266196e+04,3.79999725,-3.02039603e-11,2.21824214,3.69903294,1.23373234,-2.34509847,5.17555666e-05,6.22038550,-2.16337536,-1,-0.9796828383606897
2.90518087e+04,3.79999721,-2.92572627e-11,2.20969885,3.69954672,1.22843315,-2.34509847,5.15124715e-05,6.22561049,-2.14770408,-1,-0.978698814666735
3.04418123e+04,3.79999717,-2.83880062e-11,2.20179215,3.70006253,1.22344817,-2.34509847,5.12961048e-05,6.23052609,-2.13296278,-1,-0.977666662744355
3.18998947e+04,3.79999713,-2.76031726e-11,2.19420626,3.70051322,1.21875385,-2.34509847,5.10986702e-05,6.23515558,-2.11907888,-1,-0.9765839586764312
3.34309247e+04,3.79999708,-2.68859346e-11,2.18726785,3.70099426,1.21432257,-2.34509847,5.09523290e-05,6.23952597,-2.10596999,-1,-0.9754470871188888
3.50373984e+04,3.79999704,-2.62141261e-11,2.18050836,3.70140426,1.21012281,-2.34509847,5.07749529e-05,6.24366864,-2.09354638,-1,-0.9742541945841442
3.67234553e+04,3.79999700,-2.55902821e-11,2.17413956,3.70184418,1.20605858,-2.34509847,5.06500099e-05,6.24767801,-2.08152028,-1,-0.9730022072723292
3.84904294e+04,3.79999695,-2.50010117e-11,2.16775891,3.70224891,1.20205879,-2.34509847,5.05364368e-05,6.25162436,-2.06968443,-1,-0.9716901346171858
4.03406656e+04,3.79999691,-2.44150967e-11,2.16128125,3.70263848,1.19804082,-2.34509847,5.04013003e-05,6.25558897,-2.05779302,-1,-0.9703162354052073
4.22767174e+04,3.79999686,-2.38232439e-11,2.15462258,3.70303651,1.19391542,-2.34509847,5.02554161e-05,6.25966018,-2.04558463,-1,-0.9688786135262443
4.43073324e+04,3.79999681,-2.32193535e-11,2.14764644,3.70346582,1.18956872,-2.34509847,5.01196129e-05,6.26394986,-2.03272001,-1,-0.9673707734200288
4.64319863e+04,3.79999677,-2.25900181e-11,2.14016523,3.70393086,1.18489806,-2.34509847,4.99828517e-05,6.26855964,-2.01889636,-1,-0.9657931044073174
4.86520658e+04,3.79999672,-2.19194963e-11,2.13193768,3.70442251,1.17980097,-2.34509847,4.98234131e-05,6.27359082,-2.00380726,-1,-0.9641445767892869
5.09696784e+04,3.79999667,-2.11918219e-11,2.12281467,3.70495784,1.17416880,-2.34509847,4.96251471e-05,6.27915039,-1.98713119,-1,-0.9624236256346119
5.33886680e+04,3.79999662,-2.04066529e-11,2.11266122,3.70555649,1.16789478,-2.34509847,4.94046851e-05,6.28534387,-1.96855396,-1,-0.9606273966422141
5.59084202e+04,3.79999657,-1.95590531e-11,2.10137488,3.70623928,1.16088603,-2.34509847,4.91610712e-05,6.29226297,-1.94779974,-1,-0.9587563460369124
5.85301689e+04,3.79999652,-1.86609775e-11,2.08880985,3.70699772,1.15308664,-2.34509847,4.89077072e-05,6.29996345,-1.92470067,-1,-0.9568095575820461
6.12423488e+04,3.79999647,-1.77153046e-11,2.07504799,3.70787069,1.14445976,-2.34524151,4.86562575e-05,6.30640353,-1.89285434,-1,-0.9547956191306451
6.40606846e+04,3.79999642,-1.67724410e-11,2.06089112,3.70879232,1.13553808,-2.34526283,4.83797536e-05,6.31175715,-1.85549355,-1,-0.9527028542529984
6.70122921e+04,3.79999637,-1.59060339e-11,2.04683653,3.70971953,1.12665637,-2.34527941,4.81870795e-05,6.31817227,-1.81876103,-1,-0.9505111280191695
7.01079294e+04,3.79999633,-1.51029795e-11,2.03319452,3.71071089,1.11785264,-2.34530361,4.80892651e-05,6.32499731,-1.78319971,-1,-0.9482124519652466
7.33474207e+04,3.79999628,-1.43418279e-11,2.01936786,3.71160841,1.10914425,-2.34530530,4.79281553e-05,6.33218067,-1.74823645,-1,-0.9458069566321204
7.67423319e+04,3.79999623,-1.36247658e-11,2.00587193,3.71253823,1.10053666,-2.34535116,4.77961330e-05,6.33961210,-1.71375741,-1,-0.9432860537212289
8.02985448e+04,3.79999618,-1.29571181e-11,1.99256750,3.71346210,1.09203671,-2.34535209,4.76972426e-05,6.34722772,-1.67966023,-1,-0.9406453756818858
8.40231918e+04,3.79999614,-1.23320869e-11,1.97945882,3.71438189,1.08364279,-2.34534670,4.76198855e-05,6.35497209,-1.64580460,-1,-0.9378796263261018
8.79255321e+04,3.79999609,-1.17413591e-11,1.96669149,3.71533228,1.07535834,-2.34538475,4.75657017e-05,6.36281803,-1.61212272,-1,-0.9349819302032815
9.20122880e+04,3.79999604,-1.11926768e-11,1.95400756,3.71623988,1.06720118,-2.34523453,4.75238445e-05,6.37073533,-1.57866687,-1,-0.9319472956465916
9.62945602e+04,3.79999600,-1.06762344e-11,1.94152183,3.71714006,1.05915795,-2.34519149,4.74865770e-05,6.37872461,-1.54521586,-1,-0.9287674797933199
1.00780143e+05,3.79999595,-1.01918819e-11,1.92928295,3.71803504,1.05124855,-2.34518301,4.74627471e-05,6.38676156,-1.51187805,-1,-0.9254366949593704
1.05479356e+05,3.79999590,-9.73825447e-12,1.91743016,3.71896417,1.04346389,-2.34514987,4.74862692e-05,6.39484827,-1.47851627,-1,-0.9219472782905045
1.10404698e+05,3.79999586,-9.31527992e-12,1.90584363,3.71988888,1.03582122,-2.34513000,4.75353401e-05,6.40297620,-1.44516308,-1,-0.9182899487600777
1.15564966e+05,3.79999581,-8.91763616e-12,1.89462371,3.72082936,1.02833029,-2.34548357,4.76038824e-05,6.41112488,-1.41184758,-1,-0.9144581741256836
1.20969642e+05,3.79999576,-8.55048341e-12,1.88370240,3.72177924,1.02096987,-2.34513576,4.77401248e-05,6.41933175,-1.37830590,-1,-0.9104449134958251
1.26637864e+05,3.79999572,-8.20565458e-12,1.87308841,3.72271875,1.01378385,-2.34511949,4.78745302e-05,6.42756656,-1.34472150,-1,-0.9062359558832137
1.32573384e+05,3.79999567,-7.88321220e-12,1.86280624,3.72366457,1.00675113,-2.34511104,4.80382932e-05,6.43586182,-1.31085240,-1,-0.9018285152274301
1.38795134e+05,3.79999562,-7.58229312e-12,1.85286876,3.72460114,9.99909251e-01,-2.34510689,4.82165513e-05,6.44420283,-1.27679663,-1,-0.8972085335071898
1.45318063e+05,3.79999557,-7.30429762e-12,1.84391598,3.72568900,9.93257147e-01,-2.34612819,4.85466610e-05,6.45260727,-1.24249479,-1,-0.8923649102914665
1.52151200e+05,3.79999553,-7.05111485e-12,1.83482574,3.72663559,9.86818841e-01,-2.34510300,4.88427392e-05,6.46108115,-1.20793329,-1,-0.887290941065461
1.59314391e+05,3.79999548,-6.81551071e-12,1.82643827,3.72764383,9.80608617e-01,-2.34510113,4.92036944e-05,6.46964241,-1.17300565,-1,-0.8819718891140662
1.66824913e+05,3.79999543,-6.59988310e-12,1.81865335,3.72867355,9.74656723e-01,-2.34510027,4.96259243e-05,6.47830032,-1.13767693,-1,-0.8763949253419019
1.74693164e+05,3.79999537,-6.40650921e-12,1.81171163,3.72977655,9.68979870e-01,-2.34510008,5.01813618e-05,6.48707562,-1.10190484,-1,-0.8705523286785413
