star_age,star_mass,star_mdot,log_L,log_Teff,log_R,log_surf_z,v_wind_Km_per_s,log_center_T,log_center_Rho,phase,x
4.14441753e+02,3.39999977,-4.75252627e-10,2.90326798,3.63870496,1.69690122,-2.34509854,6.69598899e-05,5.72242828,-3.56537088,-1,-1.0
4.33886840e+02,3.39999976,-4.69388663e-10,2.91261150,3.64228531,1.69441228,-2.34509854,8.06164541e-05,5.72454549,-3.55903367,-1,-0.9999888078903556
4.54911193e+02,3.39999975,-4.76492254e-10,2.91171850,3.64325621,1.69202397,-2.34509854,8.47755181e-05,5.72681373,-3.55223990,-1,-0.9999767067943832
4.77147488e+02,3.39999974,-4.71082330e-10,2.90803870,3.64355679,1.68958293,-2.34509854,8.47590235e-05,5.72917969,-3.54515198,-1,-0.9999639081346638
5.00480898e+02,3.39999973,-4.64776533e-10,2.90416350,3.64384915,1.68706059,-2.34509854,8.46018352e-05,5.73162509,-3.53782756,-1,-0.9999504780027699
5.24915862e+02,3.39999972,-4.58285159e-10,2.90020522,3.64416068,1.68445841,-2.34509854,8.44272727e-05,5.73414796,-3.53026956,-1,-0.9999364138437232
5.50513474e+02,3.39999971,-4.51384927e-10,2.89611337,3.64448006,1.68177372,-2.34509854,8.41932592e-05,5.73675111,-3.52247070,-1,-0.9999216804933331
5.77334908e+02,3.39999970,-4.44189761e-10,2.89197886,3.64483165,1.67900329,-2.34509854,8.39193995e-05,5.73943725,-3.51442359,-1,-0.9999062427413626
6.05428481e+02,3.39999969,-4.37074630e-10,2.88762310,3.64517038,1.67614795,-2.34509854,8.36738339e-05,5.74220648,-3.50612713,-1,-0.9998900727777457
6.34963212e+02,3.39999967,-4.29671704e-10,2.88311403,3.64551735,1.67319947,-2.34509854,8.33863659e-05,5.74506630,-3.49755884,-1,-0.9998730733193391
6.65967945e+02,3.39999966,-4.22210230e-10,2.87870933,3.64593792,1.67015597,-2.34509854,8.31026754e-05,5.74801759,-3.48871641,-1,-0.999855227764252
6.98409453e+02,3.39999965,-4.14637162e-10,2.87390466,3.64630131,1.66702687,-2.34509854,8.28047692e-05,5.75105322,-3.47962190,-1,-0.9998365552371212
7.32336873e+02,3.39999963,-4.06972748e-10,2.86895791,3.64667243,1.66381125,-2.34509854,8.24976969e-05,5.75417325,-3.47027451,-1,-0.9998170274559088
7.68078595e+02,3.39999962,-3.99226771e-10,2.86385267,3.64705451,1.66049447,-2.34509854,8.21828809e-05,5.75739152,-3.46063176,-1,-0.9997964554074781
8.05468541e+02,3.39999960,-3.91406713e-10,2.85858476,3.64743999,1.65708954,-2.34509854,8.18584683e-05,5.76069593,-3.45073072,-1,-0.9997749346822054
8.44585576e+02,3.39999959,-3.83409957e-10,2.85318237,3.64783652,1.65359530,-2.34509854,8.15017943e-05,5.76408720,-3.44056890,-1,-0.9997524198873534
8.85755691e+02,3.39999957,-3.75431330e-10,2.84773259,3.64827289,1.64999767,-2.34509854,8.11539218e-05,5.76757848,-3.43010547,-1,-0.9997287233905903
9.28730186e+02,3.39999956,-3.67399806e-10,2.84203238,3.64868915,1.64631505,-2.34509854,8.07950757e-05,5.77115316,-3.41939193,-1,-0.9997039883374659
9.73978821e+02,3.39999954,-3.59496606e-10,2.83642137,3.64918127,1.64252529,-2.34509854,8.04697488e-05,5.77483119,-3.40836851,-1,-0.999677944345779
1.02126490e+03,3.39999952,-3.51493422e-10,2.83061828,3.64966997,1.63864636,-2.34509854,8.01207733e-05,5.77859612,-3.39708454,-1,-0.9996507276518746
1.07087883e+03,3.39999951,-3.43483532e-10,2.82450093,3.65012844,1.63467074,-2.34509854,7.97651052e-05,5.78245642,-3.38551267,-1,-0.9996221711046887
1.12291609e+03,3.39999949,-3.35452965e-10,2.81819011,3.65058620,1.63059982,-2.34509854,7.93985112e-05,5.78640989,-3.37366228,-1,-0.9995922197488776
1.17735863e+03,3.39999947,-3.27396361e-10,2.81168394,3.65103996,1.62643921,-2.34509854,7.90173080e-05,5.79045116,-3.36154823,-1,-0.9995608839735735
1.23447550e+03,3.39999945,-3.19271369e-10,2.80520494,3.65154934,1.62218094,-2.34509854,7.86134608e-05,5.79458729,-3.34915044,-1,-0.9995280089202715
1.29440097e+03,3.39999943,-3.11237418e-10,2.79858789,3.65207292,1.61782526,-2.34509854,7.82204182e-05,5.79881848,-3.33646652,-1,-0.9994935173064909
1.35716231e+03,3.39999942,-3.03387638e-10,2.79177731,3.65259447,1.61337687,-2.34509854,7.78598379e-05,5.80314086,-3.32350904,-1,-0.9994573934362964
1.42291290e+03,3.39999940,-2.95376457e-10,2.78478659,3.65311678,1.60883689,-2.34509854,7.74416622e-05,5.80755287,-3.31028290,-1,-0.9994195490279651
1.49182274e+03,3.39999938,-2.87570996e-10,2.77780958,3.65369037,1.60420121,-2.34509854,7.70638496e-05,5.81205781,-3.29677772,-1,-0.9993798862337149
1.56402817e+03,3.39999936,-2.79760764e-10,2.77045398,3.65421376,1.59947662,-2.34509854,7.66581196e-05,5.81665082,-3.28300776,-1,-0.9993383265796243
1.63972347e+03,3.39999933,-2.71937764e-10,2.76316384,3.65480015,1.59465877,-2.34509854,7.62315314e-05,5.82133404,-3.26896505,-1,-0.9992947582429453
1.71904407e+03,3.39999931,-2.64345022e-10,2.75565074,3.65537560,1.58975133,-2.34509854,7.58414707e-05,5.82610584,-3.25465791,-1,-0.9992491032735302
1.80219227e+03,3.39999929,-2.56710469e-10,2.74806877,3.65597951,1.58475251,-2.34509854,7.54148232e-05,5.83096694,-3.24008228,-1,-0.9992012452325177
1.88930048e+03,3.39999927,-2.49235784e-10,2.74017487,3.65654817,1.57966825,-2.34509854,7.49989415e-05,5.83591260,-3.22525288,-1,-0.9991511079079972
1.98057526e+03,3.39999925,-2.41784011e-10,2.73220404,3.65714112,1.57449693,-2.34509854,7.45588771e-05,5.84094359,-3.21016667,-1,-0.9990985724091573
2.07620604e+03,3.39999923,-2.34451355e-10,2.72413743,3.65775243,1.56924101,-2.34509854,7.41209440e-05,5.84605754,-3.19482865,-1,-0.9990435297047899
2.17637837e+03,3.39999920,-2.27277657e-10,2.71603017,3.65839617,1.56389989,-2.34509854,7.36985064e-05,5.85125484,-3.17924134,-1,-0.9989858729969183
2.28133597e+03,3.39999918,-2.20156614e-10,2.70759013,3.65899715,1.55847791,-2.34509854,7.32457899e-05,5.85653208,-3.16341249,-1,-0.9989254620063573
2.39138988e+03,3.39999916,-2.13191637e-10,2.69901200,3.65960366,1.55297583,-2.34509854,7.27994324e-05,5.86188829,-3.14734678,-1,-0.9988621177061998
2.50667750e+03,3.39999913,-2.06390875e-10,2.69072712,3.66032608,1.54738856,-2.34509854,7.23806931e-05,5.86732677,-3.13103334,-1,-0.9987957610124147
2.62736515e+03,3.39999911,-1.99690938e-10,2.68191359,3.66095295,1.54172804,-2.34509854,7.19355909e-05,5.87283924,-3.11449595,-1,-0.9987262961953365
2.75393918e+03,3.39999908,-1.93095894e-10,2.67295221,3.66158044,1.53599238,-2.34509854,7.14744209e-05,5.87842634,-3.09773396,-1,-0.9986534433239713
2.88642424e+03,3.39999906,-1.86594203e-10,2.66407141,3.66226597,1.53018092,-2.34509854,7.10035439e-05,5.88408807,-3.08074820,-1,-0.9985771882103909
3.02534702e+03,3.39999903,-1.80244009e-10,2.65492186,3.66292044,1.52429720,-2.34509854,7.05267069e-05,5.88982151,-3.06354941,-1,-0.9984972277048982
3.17079100e+03,3.39999901,-1.74117911e-10,2.64574676,3.66359668,1.51835717,-2.34509854,7.00785531e-05,5.89553788,-3.04631237,-1,-0.9984135137584768
3.32325790e+03,3.39999898,-1.68074900e-10,2.63641498,3.66427162,1.51234140,-2.34509854,6.96038253e-05,5.90137826,-3.02876361,-1,-0.9983257575935419
3.48286159e+03,3.39999895,-1.62164086e-10,2.62700137,3.66495837,1.50626109,-2.34509854,6.91227436e-05,5.90728550,-3.01101551,-1,-0.9982338936693469
3.65028552e+03,3.39999893,-1.56471898e-10,2.61763582,3.66568725,1.50012056,-2.34509854,6.86720779e-05,5.91326120,-2.99307415,-1,-0.9981375286090282
3.82543342e+03,3.39999890,-1.50856925e-10,2.60806329,3.66640150,1.49390580,-2.34509854,6.81918596e-05,5.91932099,-2.97488989,-1,-0.9980367178232091
4.00904915e+03,3.39999887,-1.45416871e-10,2.59821477,3.66707529,1.48763397,-2.34509854,6.77110820e-05,5.92543737,-2.95653370,-1,-0.9979310331645291
4.20134461e+03,3.39999885,-1.40033635e-10,2.58836541,3.66778292,1.48129402,-2.34509854,6.71928996e-05,5.93162378,-2.93797076,-1,-0.9978203526686052
4.40277478e+03,3.39999882,-1.34817025e-10,2.57857261,3.66853331,1.47489685,-2.34509854,6.66867598e-05,5.93786614,-2.91923876,-1,-0.9977044144602375
4.61370295e+03,3.39999879,-1.29826221e-10,2.56852024,3.66924662,1.46844403,-2.34509853,6.62105600e-05,5.94416482,-2.90033874,-1,-0.9975830094387154
4.83477020e+03,3.39999876,-1.24949970e-10,2.55828814,3.66994066,1.46193991,-2.34509853,6.57108340e-05,5.95051499,-2.88128227,-1,-0.9974557686142959
5.06630455e+03,3.39999874,-1.20174009e-10,2.54794938,3.67063384,1.45538415,-2.34509853,6.51846100e-05,5.95691757,-2.86207105,-1,-0.9973225031868052
5.30888416e+03,3.39999871,-1.15612056e-10,2.53765845,3.67136733,1.44877172,-2.34509853,6.47033107e-05,5.96337687,-2.84268646,-1,-0.9971828803816916
5.56303549e+03,3.39999868,-1.11279038e-10,2.52744694,3.67214300,1.44211463,-2.34509853,6.42776600e-05,5.96988125,-2.82316803,-1,-0.9970365971816404
5.82909759e+03,3.39999865,-1.06956081e-10,2.51704145,3.67289271,1.43541246,-2.34509852,6.37734707e-05,5.97643184,-2.80351150,-1,-0.9968834584378835
6.10779081e+03,3.39999862,-1.02780914e-10,2.50638719,3.67360243,1.42866588,-2.34509852,6.32651834e-05,5.98302724,-2.78371986,-1,-0.9967230495348328
6.39981300e+03,3.39999859,-9.87186823e-11,2.49563218,3.67430728,1.42187868,-2.34509852,6.27388972e-05,5.98966422,-2.76380374,-1,-0.996554968807342
6.70574400e+03,3.39999856,-9.48141521e-11,2.48498102,3.67505598,1.41505570,-2.34509851,6.22333346e-05,5.99633694,-2.74378054,-1,-0.9963788825138928
7.02610939e+03,3.39999853,-9.10091568e-11,2.47424850,3.67580939,1.40818263,-2.34509851,6.17096448e-05,6.00306024,-2.72360483,-1,-0.9961944881436772
7.36176494e+03,3.39999850,-8.74326148e-11,2.46359867,3.67660130,1.40127388,-2.34509850,6.12612048e-05,6.00982046,-2.70332235,-1,-0.9960012931367144
7.71308835e+03,3.39999847,-8.39094312e-11,2.45262713,3.67733800,1.39431472,-2.34509850,6.07574740e-05,6.01663252,-2.68288266,-1,-0.9957990800982554
8.08135753e+03,3.39999844,-8.05198433e-11,2.44178708,3.67812400,1.38732270,-2.34509850,6.02707758e-05,6.02347772,-2.66234530,-1,-0.9955871134950091
8.46705509e+03,3.39999841,-7.72515970e-11,2.43069536,3.67886156,1.38030172,-2.34509849,5.97751224e-05,6.03035296,-2.64171701,-1,-0.995365115548633
8.87111181e+03,3.39999838,-7.40740602e-11,2.41965180,3.67962757,1.37324792,-2.34509849,5.92666853e-05,6.03726134,-2.62098851,-1,-0.995132550525252
9.29420157e+03,3.39999835,-7.10369778e-11,2.40846586,3.68037349,1.36616310,-2.34509849,5.87771914e-05,6.04420193,-2.60016052,-1,-0.9948890305562568
9.73732081e+03,3.39999832,-6.80881161e-11,2.39719099,3.68111261,1.35904743,-2.34509849,5.82698548e-05,6.05117481,-2.57923842,-1,-0.9946339821155051
1.02016848e+04,3.39999829,-6.52742945e-11,2.38610145,3.68191549,1.35189689,-2.34509849,5.78040430e-05,6.05818295,-2.55820962,-1,-0.994366705723736
1.06878537e+04,3.39999826,-6.25623309e-11,2.37474671,3.68266050,1.34472950,-2.34509848,5.73240558e-05,6.06520964,-2.53712676,-1,-0.9940868789667509
1.11970193e+04,3.39999823,-5.99414241e-11,2.36328830,3.68339000,1.33754129,-2.34509848,5.68328029e-05,6.07225831,-2.51597857,-1,-0.993793815879794
1.17304585e+04,3.39999820,-5.74192297e-11,2.35188688,3.68414443,1.33033173,-2.34509848,5.63498946e-05,6.07932897,-2.49476322,-1,-0.9934867815109054
1.22892938e+04,3.39999817,-5.49973843e-11,2.34051760,3.68491841,1.32309912,-2.34509848,5.58801127e-05,6.08642352,-2.47347586,-1,-0.9931651297769343
1.28744070e+04,3.39999814,-5.26788885e-11,2.32892061,3.68564360,1.31585025,-2.34509848,5.54121219e-05,6.09353612,-2.45213366,-1,-0.9928283531356782
1.34877085e+04,3.39999810,-5.04662340e-11,2.31758944,3.68644548,1.30858091,-2.34509848,5.49864749e-05,6.10067031,-2.43072834,-1,-0.992475352008294
1.41299438e+04,3.39999807,-4.83207231e-11,2.30607399,3.68720183,1.30131048,-2.34509848,5.45294174e-05,6.10780777,-2.40931443,-1,-0.9921056973034776
1.48025557e+04,3.39999804,-4.62777620e-11,2.29444217,3.68793008,1.29403807,-2.34509848,5.40871418e-05,6.11494905,-2.38789132,-1,-0.9917185585813449
1.55073829e+04,3.39999801,-4.43040470e-11,2.28293782,3.68869039,1.28676528,-2.34509848,5.36425892e-05,6.12209193,-2.36646169,-1,-0.9913128775317942
1.62454770e+04,3.39999798,-4.24238985e-11,2.27126282,3.68940455,1.27949946,-2.34509847,5.32047257e-05,6.12922954,-2.34504759,-1,-0.9908880488799556
1.70192976e+04,3.39999795,-4.06266096e-11,2.25988639,3.69018597,1.27224841,-2.34509847,5.27968693e-05,6.13635321,-2.32367499,-1,-0.9904426569410917
1.78299627e+04,3.39999791,-3.89222993e-11,2.24848419,3.69095313,1.26501299,-2.34509847,5.24142668e-05,6.14346288,-2.30234363,-1,-0.9899760582221402
1.86792014e+04,3.39999788,-3.72867560e-11,2.23697599,3.69166929,1.25782656,-2.34509847,5.20104929e-05,6.15052672,-2.28115070,-1,-0.9894872574960402
1.95691938e+04,3.39999785,-3.57271699e-11,2.22551926,3.69237080,1.25069518,-2.34509847,5.16095823e-05,6.15753822,-2.26011622,-1,-0.9889749999513197
2.05021489e+04,3.39999782,-3.42405231e-11,2.21417310,3.69306438,1.24363495,-2.34509847,5.12110682e-05,6.16448137,-2.23928761,-1,-0.9884380141423842
2.14803714e+04,3.39999778,-3.28377463e-11,2.20297908,3.69374681,1.23667307,-2.34509847,5.08312426e-05,6.17132880,-2.21874533,-1,-0.9878749735410933
2.25064966e+04,3.39999775,-3.15191889e-11,2.19211569,3.69445764,1.22981972,-2.34509847,5.04892902e-05,6.17807063,-2.19852017,-1,-0.9872843613341489
2.35826158e+04,3.39999772,-3.02808048e-11,2.18139349,3.69512282,1.22312825,-2.34509847,5.01503831e-05,6.18465454,-2.17876922,-1,-0.986664973821156
2.47115195e+04,3.39999769,-2.91205897e-11,2.17098402,3.69577561,1.21661794,-2.34509847,4.98284706e-05,6.19106127,-2.15954966,-1,-0.9860152048595472
2.58955586e+04,3.39999765,-2.80363349e-11,2.16085430,3.69638951,1.21032529,-2.34509847,4.95101897e-05,6.19725511,-2.14096935,-1,-0.9853337013296081
2.71397375e+04,3.39999762,-2.70378999e-11,2.15111291,3.69697067,1.20429228,-2.34509847,4.92142038e-05,6.20319478,-2.12315361,-1,-0.9846175828228578
2.84457402e+04,3.39999758,-2.61137220e-11,2.14203137,3.69757747,1.19853790,-2.34509847,4.89507932e-05,6.20886073,-2.10616032,-1,-0.9838658800706768
2.98169606e+04,3.39999755,-2.52748456e-11,2.13327365,3.69811595,1.19308208,-2.34509847,4.87089867e-05,6.21423381,-2.09004260,-1,-0.9830766396284274
3.12554324e+04,3.39999751,-2.45040050e-11,2.12496266,3.69860249,1.18795351,-2.34509847,4.84655966e-05,6.21928508,-2.07489196,-1,-0.9822486909488458
3.27683193e+04,3.39999748,-2.38035988e-11,2.11723634,3.69907835,1.18313862,-2.34509847,4.82536882e-05,6.22402741,-2.06066827,-1,-0.9813779107839437
3.43558356e+04,3.39999744,-2.31625866e-11,2.10988939,3.69950480,1.17861224,-2.34509847,4.80471107e-05,6.22848636,-2.04729439,-1,-0.9804641757879575
3.60217358e+04,3.39999740,-2.25713964e-11,2.10293002,3.69989827,1.17434562,-2.34509847,4.78473476e-05,6.23268950,-2.03468720,-1,-0.9795053249638367
3.77690661e+04,3.39999736,-2.20225305e-11,2.09630087,3.70028768,1.17025224,-2.34509847,4.76736363e-05,6.23672267,-2.02259152,-1,-0.9784996049944373
3.96024594e+04,3.39999732,-2.15190837e-11,2.09021312,3.70076057,1.16626257,-2.34509847,4.75911109e-05,6.24065374,-2.01080082,-1,-0.9774443492974618
4.15279544e+04,3.39999728,-2.10200714e-11,2.08381032,3.70113091,1.16232050,-2.34509847,4.74389935e-05,6.24453875,-1.99914829,-1,-0.9763360821470103
4.35444744e+04,3.39999724,-2.05273544e-11,2.07724517,3.70150531,1.15828912,-2.34509847,4.72977501e-05,6.24851254,-1.98722845,-1,-0.9751754232648899
4.56546890e+04,3.39999720,-2.00217389e-11,2.07044388,3.70190357,1.15409195,-2.34509847,4.71466766e-05,6.25265017,-1.97481860,-1,-0.9739608360955734
4.78647594e+04,3.39999716,-1.95014988e-11,2.06335869,3.70236711,1.14962229,-2.34509847,4.70190746e-05,6.25705683,-1.96160087,-1,-0.9726887744052001
5.01796741e+04,3.39999711,-1.89453782e-11,2.05544035,3.70281738,1.14476256,-2.34509847,4.68434696e-05,6.26184896,-1.94722687,-1,-0.971356366936935
5.25980980e+04,3.39999707,-1.83493152e-11,2.04668940,3.70330433,1.13941320,-2.34509847,4.66451886e-05,6.26712426,-1.93140289,-1,-0.9699643821412139
5.51251895e+04,3.39999702,-1.77001813e-11,2.03696720,3.70385905,1.13344265,-2.34509847,4.64183455e-05,6.27301266,-1.91374195,-1,-0.9685098509709771
5.77609305e+04,3.39999698,-1.70048287e-11,2.02628911,3.70452974,1.12676223,-2.34509847,4.62076224e-05,6.27960180,-1.89397963,-1,-0.9669927838441353
6.05042804e+04,3.39999693,-1.62537802e-11,2.01416392,3.70523202,1.11929507,-2.34509847,4.59385397e-05,6.28696842,-1.87188626,-1,-0.9654137797042314
6.33575432e+04,3.39999689,-1.54541493e-11,2.00079721,3.70602343,1.11102890,-2.34509847,4.56382986e-05,6.29512480,-1.84742317,-1,-0.9637715124260274
6.63241698e+04,3.39999684,-1.46373113e-11,1.98618474,3.70685591,1.10205769,-2.34509847,4.53294325e-05,6.30395427,-1.82080653,-1,-0.9620639957571004
6.94051063e+04,3.39999680,-1.38157941e-11,1.97112817,3.70780632,1.09262860,-2.34533745,4.50238188e-05,6.31082853,-1.78734513,-1,-0.9602906851457631
7.26234027e+04,3.39999675,-1.30494655e-11,1.95577486,3.70870424,1.08315610,-2.34535500,4.47431239e-05,6.31767234,-1.75280794,-1,-0.9584383135838861
7.59966220e+04,3.39999671,-1.23343544e-11,1.94067807,3.70962222,1.07377174,-2.34537192,4.44991624e-05,6.32500250,-1.71891293,-1,-0.9564967722444077
7.95310978e+04,3.39999667,-1.16631197e-11,1.92568631,3.71050861,1.06450309,-2.34538823,4.42429145e-05,6.33251998,-1.68578885,-1,-0.9544624156643045
8.32362037e+04,3.39999663,-1.10381249e-11,1.91104628,3.71143826,1.05532377,-2.34541095,4.40428140e-05,6.34020459,-1.65296561,-1,-0.9523298486319756
8.71158824e+04,3.39999659,-1.04532219e-11,1.89641385,3.71231344,1.04625719,-2.34541221,4.38248684e-05,6.34797807,-1.62045119,-1,-0.9500968018271195
9.11839871e+04,3.39999655,-9.90907785e-12,1.88216616,3.71322015,1.03731994,-2.34557303,4.36510649e-05,6.35579001,-1.58833161,-1,-0.9477553016915142
9.54442483e+04,3.39999651,-9.39685351e-12,1.86790836,3.71406360,1.02850413,-2.34545467,4.34445693e-05,6.36361202,-1.55640005,-1,-0.9453032010419135
9.99087192e+04,3.39999646,-8.91561723e-12,1.85383591,3.71489855,1.01979801,-2.34534151,4.32371779e-05,6.37145226,-1.52453522,-1,-0.9427335623554371
1.04590000e+05,3.39999642,-8.46703303e-12,1.84018387,3.71578151,1.01120607,-2.34555728,4.30825606e-05,6.37929577,-1.49276936,-1,-0.9400391332695764
1.09495241e+05,3.39999638,-8.05155371e-12,1.82676696,3.71666653,1.00272758,-2.34530332,4.29727793e-05,6.38712623,-1.46106366,-1,-0.9372157982490503
1.14633335e+05,3.39999634,-7.65905623e-12,1.81345081,3.71751007,9.94382422e-01,-2.34570555,4.28276357e-05,6.39492813,-1.42949835,-1,-0.9342584388188093
1.20019411e+05,3.39999630,-7.29175636e-12,1.80036997,3.71835277,9.86156593e-01,-2.34519802,4.27076990e-05,6.40271878,-1.39792614,-1,-0.931158347101804
1.25663903e+05,3.39999626,-6.94863807e-12,1.78750113,3.71919159,9.78044528e-01,-2.34517556,4.26006517e-05,6.41050255,-1.36628164,-1,-0.927909517546502
1.31578155e+05,3.39999622,-6.62349560e-12,1.77512853,3.72011217,9.70017086e-01,-2.34594493,4.25402652e-05,6.41829175,-1.33428287,-1,-0.924505420827948
1.37773163e+05,3.39999618,-6.32302108e-12,1.76256671,3.72091813,9.62124246e-01,-2.34514049,4.24614544e-05,6.42606633,-1.30224171,-1,-0.9209397279213529
1.44267658e+05,3.39999614,-6.03881906e-12,1.75044611,3.72177214,9.54355931e-01,-2.34513081,4.24056137e-05,6.43383931,-1.27008513,-1,-0.917201657727833
1.51072937e+05,3.39999610,-5.77165629e-12,1.73851684,3.72260590,9.46723776e-01,-2.34512399,4.23459542e-05,6.44160879,-1.23781206,-1,-0.913284707974467
1.58208949e+05,3.39999606,-5.52299744e-12,1.72696776,3.72346672,9.39227580e-01,-2.34511811,4.23320203e-05,6.44938902,-1.20537075,-1,-0.9091773965117899
1.65686793e+05,3.39999602,-5.29016298e-12,1.71572212,3.72433257,9.31873068e-01,-2.34511017,4.23393941e-05,6.45718549,-1.17274684,-1,-0.9048733350307676
1.73529678e+05,3.39999598,-5.07639741e-12,1.70500940,3.72526030,9.24661255e-01,-2.34511021,4.24400360e-05,6.46501420,-1.13989211,-1,-0.900359165006816
1.81747916e+05,3.39999594,-4.87230475e-12,1.69442434,3.72613935,9.17610633e-01,-2.34510634,4.24914450e-05,6.47287607,-1.10680315,-1,-0.8956289511085757
1.90364625e+05,3.39999590,-4.68282544e-12,1.68436481,3.72706735,9.10724860e-01,-2.34510550,4.26061424e-05,6.48078579,-1.07343090,-1,-0.8906693871888045
1.99400693e+05,3.39999586,-4.50867751e-12,1.67461518,3.72798139,9.04021961e-01,-2.34510276,4.27562318e-05,6.48875406,-1.03974626,-1,-0.885468450632934
2.08869382e+05,3.39999582,-4.34557735e-12,1.66531833,3.72891147,8.97513378e-01,-2.34510075,4.29311316e-05,6.49679096,-1.00572142,-1,-0.8800185081627944
