star_age,star_mass,star_mdot,log_L,log_Teff,log_R,log_surf_z,v_wind_Km_per_s,log_center_T,log_center_Rho,phase,x
3.12984237e+02,4.59999970,-8.27942531e-10,3.15027579,3.63767407,1.82246692,-2.34509849,7.69282715e-05,5.72151847,-3.81548542,-1,-1.0
3.27705039e+02,4.59999969,-8.18154352e-10,3.14709236,3.63791178,1.82039977,-2.34509849,7.67381118e-05,5.72353550,-3.80944058,-1,-0.9999824057835662
3.43084351e+02,4.59999968,-8.07971280e-10,3.14379031,3.63815327,1.81826576,-2.34509849,7.65239862e-05,5.72561792,-3.80319894,-1,-0.9999640245198328
3.58652226e+02,4.59999967,-7.98103949e-10,3.14970275,3.64083485,1.81585883,-2.34509849,8.75627212e-05,5.72775065,-3.79681141,-1,-0.9999454178867049
3.75131868e+02,4.59999965,-8.03496876e-10,3.15147527,3.64249097,1.81343285,-2.34509849,9.51220821e-05,5.73000253,-3.79006425,-1,-0.9999257215149924
3.92644601e+02,4.59999964,-7.99847448e-10,3.14800269,3.64283451,1.81100948,-2.34509849,9.57441883e-05,5.73236778,-3.78297424,-1,-0.9999047903989603
4.11051787e+02,4.59999962,-7.89211096e-10,3.14419579,3.64313554,1.80850397,-2.34509849,9.55646865e-05,5.73481489,-3.77564032,-1,-0.999882790237935
4.30322779e+02,4.59999961,-7.78520980e-10,3.14025260,3.64344098,1.80592149,-2.34509849,9.53958433e-05,5.73733719,-3.76807994,-1,-0.999859757661032
4.50475199e+02,4.59999959,-7.67072644e-10,3.13618518,3.64375392,1.80326191,-2.34509849,9.51502295e-05,5.73993491,-3.76029352,-1,-0.9998356716065396
4.71556684e+02,4.59999958,-7.55165956e-10,3.13213560,3.64411176,1.80052143,-2.34509849,9.48637847e-05,5.74261116,-3.75227116,-1,-0.9998104751389942
4.93599134e+02,4.59999956,-7.43086212e-10,3.12798109,3.64448402,1.79769965,-2.34509849,9.45698308e-05,5.74536673,-3.74401106,-1,-0.9997841301317026
5.16637851e+02,4.59999954,-7.30670171e-10,3.12356393,3.64483053,1.79479806,-2.34509849,9.42447857e-05,5.74820112,-3.73551441,-1,-0.9997565943919207
5.40776957e+02,4.59999953,-7.18315386e-10,3.11899700,3.64518225,1.79181115,-2.34509849,9.39389829e-05,5.75111911,-3.72676894,-1,-0.9997277434736432
5.66104323e+02,4.59999951,-7.05692673e-10,3.11429330,3.64554415,1.78873550,-2.34509849,9.36094283e-05,5.75412394,-3.71776171,-1,-0.9996974723539651
5.92561705e+02,4.59999949,-6.92896189e-10,3.10949155,3.64592244,1.78557804,-2.34509849,9.32657933e-05,5.75720842,-3.70851546,-1,-0.9996658506457743
6.20177833e+02,4.59999947,-6.79850288e-10,3.10454142,3.64630428,1.78233930,-2.34509849,9.28954498e-05,5.76037258,-3.69902938,-1,-0.999632844011143
6.49179552e+02,4.59999945,-6.66699952e-10,3.09956525,3.64672711,1.77900556,-2.34509849,9.25192625e-05,5.76362912,-3.68926654,-1,-0.9995981813262543
6.79487653e+02,4.59999943,-6.53728208e-10,3.09432043,3.64712444,1.77558849,-2.34509849,9.21709070e-05,5.76696785,-3.67925596,-1,-0.9995619572612414
7.11151568e+02,4.59999941,-6.40625598e-10,3.08901391,3.64754865,1.77208680,-2.34509849,9.18088713e-05,5.77038916,-3.66899602,-1,-0.9995241127352673
7.44380469e+02,4.59999939,-6.27272710e-10,3.08357935,3.64798791,1.76849102,-2.34509849,9.14133548e-05,5.77390275,-3.65845936,-1,-0.9994843977471812
7.79038248e+02,4.59999937,-6.14162440e-10,3.07799937,3.64843190,1.76481304,-2.34509849,9.10536606e-05,5.77749698,-3.64768036,-1,-0.9994429749724684
8.15407026e+02,4.59999935,-6.00803259e-10,3.07227499,3.64888669,1.76104126,-2.34509849,9.06559218e-05,5.78118335,-3.63662412,-1,-0.9993995072217601
8.53383929e+02,4.59999933,-5.87401465e-10,3.06636921,3.64933830,1.75718516,-2.34509849,9.02474446e-05,5.78495285,-3.62532084,-1,-0.9993541174494593
8.93099535e+02,4.59999930,-5.73991466e-10,3.06028607,3.64978883,1.75324253,-2.34509849,8.98310991e-05,5.78880713,-3.61376248,-1,-0.9993066495895044
9.34755035e+02,4.59999928,-5.60906250e-10,3.05457448,3.65038253,1.74919933,-2.34509849,8.94727102e-05,5.79275731,-3.60191839,-1,-0.9992568631795891
9.78261350e+02,4.59999926,-5.47684679e-10,3.04823233,3.65085914,1.74507504,-2.34509849,8.90725923e-05,5.79678945,-3.58982756,-1,-0.9992048646864129
1.02373988e+03,4.59999923,-5.34600231e-10,3.04177860,3.65135028,1.74086590,-2.34509849,8.86848804e-05,5.80090447,-3.57748752,-1,-0.9991505090134063
1.07133973e+03,4.59999921,-5.21461139e-10,3.03528774,3.65187666,1.73656771,-2.34509849,8.82778716e-05,5.80510645,-3.56488460,-1,-0.9990936179511454
1.12117286e+03,4.59999918,-5.08142781e-10,3.02853178,3.65238020,1.73218264,-2.34509849,8.78203548e-05,5.80939422,-3.55202382,-1,-0.9990340576856931
1.17328724e+03,4.59999916,-4.95095250e-10,3.02162037,3.65288676,1.72771381,-2.34509849,8.73894454e-05,5.81376465,-3.53891461,-1,-0.9989717708835862
1.22781352e+03,4.59999913,-4.82249946e-10,3.01485959,3.65347504,1.72315687,-2.34509849,8.69832332e-05,5.81822039,-3.52554868,-1,-0.9989066013927089
1.28482257e+03,4.59999910,-4.69476110e-10,3.00776882,3.65402240,1.71851676,-2.34509849,8.65623825e-05,5.82275905,-3.51193388,-1,-0.9988384645096517
1.34445926e+03,4.59999907,-4.56893069e-10,3.00055916,3.65458112,1.71379449,-2.34509849,8.61520262e-05,5.82737830,-3.49807739,-1,-0.9987671870866384
1.40682595e+03,4.59999905,-4.44344485e-10,2.99322495,3.65514993,1.70898978,-2.34509849,8.57212109e-05,5.83207887,-3.48397751,-1,-0.9986926467835955
1.47206703e+03,4.59999902,-4.31796508e-10,2.98579771,3.65573674,1.70410253,-2.34509849,8.52617872e-05,5.83686058,-3.46963321,-1,-0.9986146710264397
1.54030397e+03,4.59999899,-4.19501010e-10,2.97823755,3.65633038,1.69913516,-2.34509849,8.48186510e-05,5.84172100,-3.45505020,-1,-0.9985331146349378
1.61168737e+03,4.59999896,-4.07617135e-10,2.97070790,3.65696359,1.69410393,-2.34509849,8.44237163e-05,5.84664405,-3.44028217,-1,-0.9984477976128506
1.68631058e+03,4.59999893,-3.95648106e-10,2.96286030,3.65756460,1.68897810,-2.34509849,8.39750715e-05,5.85166067,-3.42523199,-1,-0.9983586083888043
1.76432836e+03,4.59999890,-3.83824332e-10,2.95480930,3.65815192,1.68377797,-2.34509849,8.35124662e-05,5.85675060,-3.40996162,-1,-0.9982653619945523
1.84592819e+03,4.59999887,-3.72276802e-10,2.94683619,3.65879764,1.67849997,-2.34509849,8.30761346e-05,5.86191601,-3.39446396,-1,-0.9981678343550952
1.93135600e+03,4.59999884,-3.60704567e-10,2.93853107,3.65939695,1.67314878,-2.34509849,8.25768100e-05,5.86715467,-3.37874297,-1,-0.9980657315363358
2.02067436e+03,4.59999881,-3.49483691e-10,2.93024367,3.66003678,1.66772543,-2.34509849,8.21147773e-05,5.87246381,-3.36281005,-1,-0.9979589787549761
2.11405983e+03,4.59999877,-3.38517791e-10,2.92201178,3.66072780,1.66222745,-2.34509849,8.16719167e-05,5.87784596,-3.34665697,-1,-0.997847364987537
2.21162596e+03,4.59999874,-3.27660379e-10,2.91344092,3.66136744,1.65666274,-2.34509849,8.11913400e-05,5.88329511,-3.33030320,-1,-0.9977307545197228
2.31382061e+03,4.59999871,-3.17212543e-10,2.90477865,3.66201048,1.65104551,-2.34509849,8.07478855e-05,5.88879646,-3.31379423,-1,-0.9976086120718815
2.42060581e+03,4.59999868,-3.06821634e-10,2.89613480,3.66270072,1.64534312,-2.34509849,8.02772956e-05,5.89438140,-3.29703270,-1,-0.9974809830255348
2.53218654e+03,4.59999864,-2.96652563e-10,2.88714753,3.66333558,1.63957975,-2.34509849,7.97905713e-05,5.90002791,-3.28008622,-1,-0.9973476223897859
2.64904360e+03,4.59999861,-2.86753759e-10,2.87829669,3.66403814,1.63374922,-2.34509849,7.93250840e-05,5.90574010,-3.26294554,-1,-0.9972079555152876
2.77107097e+03,4.59999858,-2.77045620e-10,2.86920704,3.66470117,1.62787834,-2.34509849,7.88319815e-05,5.91141883,-3.24581980,-1,-0.9970621091165236
2.89885194e+03,4.59999854,-2.67720189e-10,2.86021204,3.66541717,1.62194883,-2.34509849,7.83881296e-05,5.91723504,-3.22836834,-1,-0.9969093860486982
3.03230642e+03,4.59999851,-2.58380483e-10,2.85090511,3.66608917,1.61595137,-2.34509849,7.78648065e-05,5.92308320,-3.21078232,-1,-0.9967498820349108
3.17193505e+03,4.59999847,-2.49238010e-10,2.84153095,3.66677280,1.60989703,-2.34509849,7.73264095e-05,5.92901354,-3.19297816,-1,-0.9965829987131621
3.31792036e+03,4.59999844,-2.40432859e-10,2.83232558,3.66752989,1.60378015,-2.34509849,7.68354117e-05,5.93500591,-3.17498742,-1,-0.9964085179246641
3.47052421e+03,4.59999840,-2.31837079e-10,2.82287243,3.66825258,1.59760822,-2.34509849,7.63258010e-05,5.94105634,-3.15683021,-1,-0.9962261266958765
3.63010061e+03,4.59999836,-2.23697390e-10,2.81320439,3.66895335,1.59137264,-2.34509849,7.58862408e-05,5.94717247,-3.13847506,-1,-0.9960354019161183
3.79697844e+03,4.59999833,-2.15517551e-10,2.80344555,3.66965006,1.58509981,-2.34509849,7.53460599e-05,5.95332474,-3.12001240,-1,-0.9958359505099375
3.97152695e+03,4.59999829,-2.07651245e-10,2.79392920,3.67043603,1.57876969,-2.34509849,7.48555684e-05,5.95953356,-3.10137888,-1,-0.9956273311518941
4.15392228e+03,4.59999825,-2.00035943e-10,2.78404050,3.67115310,1.57239120,-2.34509849,7.43542814e-05,5.96579207,-3.08259528,-1,-0.9954093333204906
4.34462819e+03,4.59999822,-1.92686258e-10,2.77404245,3.67186709,1.56596419,-2.34509849,7.38662437e-05,5.97209964,-3.06366547,-1,-0.995181402732488
4.54399299e+03,4.59999818,-1.85484753e-10,2.76391248,3.67256440,1.55950460,-2.34509849,7.33386530e-05,5.97844045,-3.04463820,-1,-0.9949431230898119
4.75253084e+03,4.59999814,-1.78537413e-10,2.75393738,3.67332372,1.55299840,-2.34509849,7.28384226e-05,5.98482758,-3.02547390,-1,-0.9946938798714381
4.97057885e+03,4.59999810,-1.71766156e-10,2.74392940,3.67409566,1.54645053,-2.34509849,7.23223946e-05,5.99125673,-3.00618005,-1,-0.9944332701654668
5.19846347e+03,4.59999806,-1.65322645e-10,2.73368820,3.67482989,1.53986147,-2.34509849,7.18442959e-05,5.99772826,-2.98676146,-1,-0.9941609038007676
5.43675344e+03,4.59999803,-1.59007264e-10,2.72349669,3.67560205,1.53322139,-2.34509849,7.13434878e-05,6.00425096,-2.96718860,-1,-0.9938761010226197
5.68597756e+03,4.59999799,-1.52907804e-10,2.71324758,3.67637223,1.52655648,-2.34509849,7.08413151e-05,6.01079845,-2.94754456,-1,-0.9935782298123567
5.94651451e+03,4.59999795,-1.47038563e-10,2.70279029,3.67710775,1.51985680,-2.34509849,7.03427974e-05,6.01738119,-2.92779398,-1,-0.9932668375738576
6.21885267e+03,4.59999791,-1.41314495e-10,2.69222875,3.67783292,1.51312568,-2.34509848,6.98161227e-05,6.02399618,-2.90794435,-1,-0.9929413405982036
6.50359921e+03,4.59999787,-1.35753867e-10,2.68170038,3.67858601,1.50635533,-2.34509848,6.92840455e-05,6.03065117,-2.88797396,-1,-0.9926010131993626
6.80131443e+03,4.59999783,-1.30452069e-10,2.67121132,3.67936710,1.49954860,-2.34509942,6.87980886e-05,6.03730113,-2.86784775,-1,-0.9922451857100524
7.11238968e+03,4.59999779,-1.25319212e-10,2.66046841,3.68009322,1.49272493,-2.34510070,6.82873558e-05,6.04392160,-2.84760839,-1,-0.9918733903910423
7.43793017e+03,4.59999775,-1.20336623e-10,2.64990555,3.68087988,1.48587018,-2.34510105,6.77795528e-05,6.05050563,-2.82719070,-1,-0.9914843063018058
7.77826056e+03,4.59999771,-1.15571243e-10,2.63922349,3.68165036,1.47898818,-2.34510128,6.72934912e-05,6.05705847,-2.80660109,-1,-0.9910775454106103
8.13385133e+03,4.59999767,-1.10982553e-10,2.62836483,3.68238970,1.47208017,-2.34510127,6.68066332e-05,6.06357382,-2.78582379,-1,-0.990652545402512
8.50556080e+03,4.59999763,-1.06624090e-10,2.61743473,3.68312234,1.46514983,-2.34510148,6.63614482e-05,6.07005506,-2.76486369,-1,-0.9902082804184681
8.89455024e+03,4.59999759,-1.02419851e-10,2.60673782,3.68391983,1.45820640,-2.34510462,6.59362358e-05,6.07652086,-2.74379381,-1,-0.989743362515368
9.30100781e+03,4.59999755,-9.83055800e-11,2.59582475,3.68467125,1.45124703,-2.34510415,6.54589412e-05,6.08296666,-2.72257355,-1,-0.9892575668054804
9.72584818e+03,4.59999751,-9.43438788e-11,2.58479311,3.68539853,1.44427664,-2.34510417,6.49767304e-05,6.08939149,-2.70121742,-1,-0.9887498000805722
1.01702780e+04,4.59999747,-9.05112292e-11,2.57409034,3.68622200,1.43727833,-2.34510474,6.45232641e-05,6.09580006,-2.67964057,-1,-0.9882186201596223
1.06346395e+04,4.59999743,-8.68758453e-11,2.56304877,3.68696075,1.43028003,-2.34510508,6.40806809e-05,6.10220228,-2.65799238,-1,-0.9876636180113366
1.11202270e+04,4.59999739,-8.33394927e-11,2.55212800,3.68773438,1.42327240,-2.34510521,6.36275289e-05,6.10859750,-2.63620921,-1,-0.9870832466720231
1.16278930e+04,4.59999735,-7.99629382e-11,2.54106291,3.68847234,1.41626393,-2.34510530,6.31836874e-05,6.11499001,-2.61433582,-1,-0.9864764872386688
1.21589595e+04,4.59999731,-7.67008016e-11,2.53006653,3.68922820,1.40925402,-2.34510644,6.27382793e-05,6.12138524,-2.59236828,-1,-0.9858417596646073
1.27140350e+04,4.59999726,-7.35765231e-11,2.51897612,3.68996036,1.40224450,-2.34510803,6.22982643e-05,6.12778279,-2.57031062,-1,-0.9851783366741985
1.32945430e+04,4.59999722,-7.05867138e-11,2.50798042,3.69071640,1.39523457,-2.34510776,6.18852437e-05,6.13419109,-2.54814355,-1,-0.9844845169085698
1.39018973e+04,4.59999718,-6.77562564e-11,2.49721553,3.69152470,1.38823553,-2.34510890,6.15371024e-05,6.14062268,-2.52600041,-1,-0.9837586106022319
1.45367133e+04,4.59999714,-6.50023362e-11,2.48626148,3.69227648,1.38125493,-2.34510873,6.11374609e-05,6.14707058,-2.50386512,-1,-0.982999882232705
1.52005937e+04,4.59999710,-6.23851692e-11,2.47532938,3.69302378,1.37429429,-2.34511031,6.07659316e-05,6.15354096,-2.48176996,-1,-0.9822064162623247
1.58949088e+04,4.59999705,-5.98793638e-11,2.46443636,3.69376276,1.36736981,-2.34511083,6.03987158e-05,6.16006638,-2.45977757,-1,-0.9813765749165475
1.66211298e+04,4.59999701,-5.74771142e-11,2.45363521,3.69451210,1.36047057,-2.34511935,6.00449023e-05,6.16657873,-2.43787480,-1,-0.9805085998257397
1.73806885e+04,4.59999697,-5.51877752e-11,2.44283503,3.69523683,1.35362100,-2.34511590,5.96971148e-05,6.17310667,-2.41619898,-1,-0.9796007797109174
1.81751826e+04,4.59999693,-5.30115585e-11,2.43208771,3.69594484,1.34683132,-2.34511639,5.93609764e-05,6.17963504,-2.39480198,-1,-0.9786512050103872
1.90072285e+04,4.59999688,-5.09407115e-11,2.42157482,3.69668286,1.34009884,-2.34512813,5.90587392e-05,6.18614519,-2.37360441,-1,-0.977656748618175
1.98774943e+04,4.59999684,-4.89599634e-11,2.41106711,3.69738859,1.33343353,-2.34512589,5.87466040e-05,6.19259341,-2.35263164,-1,-0.9766166120250691
2.07878024e+04,4.59999680,-4.70777331e-11,2.40062588,3.69807824,1.32683361,-2.34512253,5.84479248e-05,6.19900583,-2.33160518,-1,-0.9755286171092508
2.17402109e+04,4.59999675,-4.52948492e-11,2.39034260,3.69876843,1.32031160,-2.34512753,5.81761794e-05,6.20519828,-2.31081471,-1,-0.9743903040416396
2.27362810e+04,4.59999671,-4.35944576e-11,2.38014033,3.69943587,1.31387558,-2.34512891,5.79021500e-05,6.21116797,-2.29007586,-1,-0.9731998068851289
2.37798565e+04,4.59999667,-4.19770832e-11,2.37014557,3.70010940,1.30753115,-2.34513020,5.76448585e-05,6.21686342,-2.26926785,-1,-0.9719525315524445
2.48715480e+04,4.59999662,-4.04462336e-11,2.36040900,3.70081077,1.30126010,-2.34514302,5.74348135e-05,6.22228003,-2.24815598,-1,-0.9706477482580389
2.60125655e+04,4.59999658,-3.89966331e-11,2.35059872,3.70144278,1.29509094,-2.34514405,5.72076379e-05,6.22740525,-2.22688601,-1,-0.9692840108169903
2.72077565e+04,4.59999653,-3.76084703e-11,2.34109199,3.70212125,1.28898065,-2.34514530,5.70169365e-05,6.23222576,-2.20518554,-1,-0.9678555255256566
2.84572237e+04,4.59999649,-3.62855350e-11,2.33152997,3.70274330,1.28295553,-2.34514704,5.68053169e-05,6.23698906,-2.18306331,-1,-0.9663621696375986
2.97632742e+04,4.59999644,-3.50204903e-11,2.32207780,3.70336231,1.27699144,-2.34514911,5.66044353e-05,6.24172679,-2.16044919,-1,-0.9648011857203929
3.11315595e+04,4.59999639,-3.38194017e-11,2.31297569,3.70405120,1.27106261,-2.34517091,5.64806367e-05,6.24652428,-2.13725873,-1,-0.9631658191343007
3.25607046e+04,4.59999634,-3.26637174e-11,2.30377627,3.70468948,1.26518632,-2.34516700,5.63282715e-05,6.25142362,-2.11368523,-1,-0.9614577132712783
3.40571375e+04,4.59999630,-3.15594999e-11,2.29487501,3.70537596,1.25936274,-2.34516800,5.62248190e-05,6.25646751,-2.08982315,-1,-0.9596691854233295
3.56217680e+04,4.59999625,-3.05065695e-11,2.28589011,3.70602454,1.25357313,-2.34517192,5.61212214e-05,6.26168878,-2.06549346,-1,-0.9577991482028165
3.72567019e+04,4.59999620,-2.94909185e-11,2.27700077,3.70667560,1.24782634,-2.34517488,5.60219362e-05,6.26708145,-2.04083028,-1,-0.9558450847698984
3.89691280e+04,4.59999615,-2.85117665e-11,2.26823097,3.70733940,1.24211384,-2.34517711,5.59347579e-05,6.27265599,-2.01572265,-1,-0.9537984031128696
4.07601655e+04,4.59999610,-2.75924783e-11,2.25982751,3.70806773,1.23645544,-2.34521810,5.59452055e-05,6.27841668,-1.99043002,-1,-0.9516577655704374
4.26317544e+04,4.59999605,-2.67093212e-11,2.25132112,3.70875011,1.23083749,-2.34521865,5.59348490e-05,6.28432327,-1.96481845,-1,-0.9494208534659508
4.45917150e+04,4.59999600,-2.58673327e-11,2.24305536,3.70947426,1.22525631,-2.34522494,5.59817812e-05,6.29047401,-1.93864849,-1,-0.9470783200225986
4.66410457e+04,4.59999595,-2.50583903e-11,2.23482216,3.71018604,1.21971616,-2.34523161,5.60328873e-05,6.29669486,-1.91232526,-1,-0.9446289719585413
4.87834915e+04,4.59999589,-2.42787960e-11,2.22672864,3.71091370,1.21421408,-2.34523579,5.61040653e-05,6.30308328,-1.88567533,-1,-0.9420683332716875
5.10250676e+04,4.59999584,-2.35337273e-11,2.21870656,3.71163870,1.20875303,-2.34523896,5.61956911e-05,6.30964956,-1.85866271,-1,-0.9393892146301857
5.33708935e+04,4.59999579,-2.28185507e-11,2.21095028,3.71241006,1.20333217,-2.34524733,5.63398280e-05,6.31639627,-1.83126045,-1,-0.9365854972375851
5.58236695e+04,4.59999573,-2.21419026e-11,2.20336508,3.71320486,1.19794998,-2.34523323,5.65461995e-05,6.32332533,-1.80347031,-1,-0.9336539537111226
5.83881611e+04,4.59999568,-2.14929809e-11,2.19577991,3.71397507,1.19261697,-2.34522676,5.67493426e-05,6.33043769,-1.77528360,-1,-0.9305888883530762
6.10701411e+04,4.59999562,-2.08690518e-11,2.18843629,3.71477843,1.18733844,-2.34521676,5.69930321e-05,6.33773679,-1.74668298,-1,-0.9273834015466569
6.38775036e+04,4.59999556,-2.02779865e-11,2.18127600,3.71559671,1.18212174,-2.34518549,5.72839368e-05,6.34522948,-1.71764359,-1,-0.924028058309725
6.68139485e+04,4.59999550,-1.97114104e-11,2.17446295,3.71646590,1.17697683,-2.34530537,5.76341774e-05,6.35291523,-1.68816465,-1,-0.9205184365434451
6.98850752e+04,4.59999545,-1.91872288e-11,2.16781526,3.71733589,1.17191300,-2.34515507,5.80594246e-05,6.36079113,-1.65823399,-1,-0.9168478438776936
7.30977098e+04,4.59999538,-1.86885424e-11,2.16148597,3.71823524,1.16694966,-2.34513662,5.85337005e-05,6.36885508,-1.62783304,-1,-0.9130081217976832
7.64582050e+04,4.59999532,-1.82173501e-11,2.15546509,3.71915308,1.16210355,-2.34512584,5.90561872e-05,6.37711659,-1.59694270,-1,-0.9089916775935372
7.99737366e+04,4.59999526,-1.77809323e-11,2.14981010,3.72009140,1.15739940,-2.34512388,5.96534605e-05,6.38557589,-1.56554719,-1,-0.904789934791074
8.36514445e+04,4.59999520,-1.73768387e-11,2.14459534,3.72105693,1.15286096,-2.34511356,6.03268599e-05,6.39423841,-1.53361778,-1,-0.900394359823582
8.74987017e+04,4.59999513,-1.70167348e-11,2.14013122,3.72211686,1.14850905,-2.34511004,6.11905280e-05,6.40310555,-1.50111850,-1,-0.8957961405245932
9.15234899e+04,4.59999506,-1.66868782e-11,2.13609074,3.72316723,1.14438807,-2.34510600,6.20930155e-05,6.41218770,-1.46802409,-1,-0.8909857372129607
9.57336311e+04,4.59999499,-1.63992693e-11,2.13273130,3.72424912,1.14054457,-2.34510351,6.31181570e-05,6.42148866,-1.43430696,-1,-0.885953801080043
1.00136515e+05,4.59999492,-1.61585203e-11,2.13029006,3.72539901,1.13702417,-2.34510118,6.43269417e-05,6.43101088,-1.39992132,-1,-0.8806914999996299
1.04739835e+05,4.59999485,-1.59719445e-11,2.12883044,3.72660478,1.13388282,-2.34509994,6.57405738e-05,6.44076974,-1.36482837,-1,-0.875189638865048
1.09550872e+05,4.59999477,-1.58407526e-11,2.12848645,3.72786279,1.13119481,-2.34509930,6.73627418e-05,6.45078042,-1.32899475,-1,-0.8694395155872101
1.14573344e+05,4.59999469,-1.57784435e-11,2.12960846,3.72922700,1.12902738,-2.34509900,6.93218964e-05,6.46105451,-1.29238605,-1,-0.863436686434267
1.19813770e+05,4.59999461,-1.57894314e-11,2.13216768,3.73064753,1.12746593,-2.34509877,7.15853432e-05,6.47161236,-1.25495481,-1,-0.8571733599355544
1.25272965e+05,4.59999452,-1.58934007e-11,2.13668499,3.73221045,1.12659874,-2.34509865,7.43657486e-05,6.48246218,-1.21669007,-1,-0.8506485620078404
