star_age,star_mass,star_mdot,log_Teff,log_R,log_surf_z,surface_h1,surface_he3,log_center_T,log_center_Rho,phase,x
2.08327536e+02,7.99999949,-2.14295571e-09,3.63558691,2.04311559,-2.34509848,7.39732019e-01,4.24450722e-05,5.72271219,-4.23805681,-1,-1.0
2.17345262e+02,7.99999947,-2.12063109e-09,3.63580603,2.04121384,-2.34509848,7.39732019e-01,4.24450722e-05,5.72459634,-4.23240436,-1,-0.9999628959182184
2.26722008e+02,7.99999945,-2.09696132e-09,3.63606329,2.03925540,-2.34509848,7.39732019e-01,4.24450722e-05,5.72653574,-4.22658613,-1,-0.9999243146228421
2.36478235e+02,7.99999943,-2.07272367e-09,3.63631918,2.03723979,-2.34509848,7.39732019e-01,4.24450722e-05,5.72853198,-4.22059723,-1,-0.9998841719256159
2.46643838e+02,7.99999941,-2.04799162e-09,3.63656413,2.03516429,-2.34509848,7.39732019e-01,4.24450722e-05,5.73058803,-4.21442881,-1,-0.9998423448214134
2.57122532e+02,7.99999939,-2.02296726e-09,3.63762520,2.03295615,-2.34509848,7.39732019e-01,4.24450722e-05,5.73269908,-4.20809759,-1,-0.9997992294817879
2.67761438e+02,7.99999937,-2.00625849e-09,3.64045872,2.03052899,-2.34509848,7.39732019e-01,4.24450722e-05,5.73486311,-4.20161214,-1,-0.999755454938373
2.79284496e+02,7.99999934,-2.02528637e-09,3.64092762,2.02818592,-2.34509848,7.39732019e-01,4.24450722e-05,5.73717983,-4.19466356,-1,-0.9997080424880052
2.91302408e+02,7.99999932,-1.99800520e-09,3.64122357,2.02578052,-2.34509848,7.39732019e-01,4.24450722e-05,5.73956404,-4.18751006,-1,-0.9996585939252864
3.03818123e+02,7.99999929,-1.97160639e-09,3.64154337,2.02330940,-2.34509848,7.39732019e-01,4.24450722e-05,5.74201292,-4.18016162,-1,-0.9996070971163443
3.16858550e+02,7.99999927,-1.94509237e-09,3.64185359,2.02077282,-2.34509848,7.39732019e-01,4.24450722e-05,5.74452690,-4.17261791,-1,-0.9995534413421642
3.30459004e+02,7.99999924,-1.91746540e-09,3.64216475,2.01816766,-2.34509848,7.39732019e-01,4.24450722e-05,5.74710906,-4.16487132,-1,-0.9994974812966402
3.44680266e+02,7.99999922,-1.88807173e-09,3.64249320,2.01548759,-2.34509848,7.39732019e-01,4.24450722e-05,5.74976513,-4.15690147,-1,-0.9994389668919793
3.59504081e+02,7.99999919,-1.85846526e-09,3.64285818,2.01273552,-2.34509848,7.39732019e-01,4.24450722e-05,5.75249138,-4.14871960,-1,-0.9993779732396911
3.74946842e+02,7.99999916,-1.82874844e-09,3.64319203,2.00991470,-2.34509848,7.39732019e-01,4.24450722e-05,5.75528669,-4.14033051,-1,-0.9993144328895988
3.91033159e+02,7.99999913,-1.79859972e-09,3.64353407,2.00702372,-2.34509848,7.39732019e-01,4.24450722e-05,5.75815135,-4.13173446,-1,-0.9992482445820884
4.07789328e+02,7.99999910,-1.76821168e-09,3.64398302,2.00405688,-2.34509848,7.39732019e-01,4.24450722e-05,5.76108832,-4.12292189,-1,-0.999179300120378
4.25293318e+02,7.99999907,-1.73785061e-09,3.64436009,2.00101455,-2.34509848,7.39732019e-01,4.24450722e-05,5.76410163,-4.11387877,-1,-0.999107278695413
4.43556833e+02,7.99999904,-1.70676328e-09,3.64473418,1.99789726,-2.34509848,7.39732019e-01,4.24450722e-05,5.76718965,-4.10461099,-1,-0.9990321321502442
4.62547675e+02,7.99999901,-1.67617012e-09,3.64511417,1.99471135,-2.34509848,7.39732019e-01,4.24450722e-05,5.77034532,-4.09514146,-1,-0.9989539929658569
4.82375562e+02,7.99999898,-1.64494399e-09,3.64549911,1.99144925,-2.34509848,7.39732019e-01,4.24450722e-05,5.77357642,-4.08544470,-1,-0.998872409699654
5.03070009e+02,7.99999894,-1.61345775e-09,3.64590952,1.98811012,-2.34509848,7.39732019e-01,4.24450722e-05,5.77688308,-4.07552181,-1,-0.9987872609100464
5.24577532e+02,7.99999891,-1.58163659e-09,3.64637577,1.98469829,-2.34509848,7.39732019e-01,4.24450722e-05,5.78026042,-4.06538736,-1,-0.9986987666607966
5.47080639e+02,7.99999887,-1.55022199e-09,3.64679199,1.98120625,-2.34509848,7.39732019e-01,4.24450722e-05,5.78371852,-4.05500969,-1,-0.9986061760096205
5.70467475e+02,7.99999884,-1.51843375e-09,3.64727302,1.97764218,-2.34509848,7.39732019e-01,4.24450722e-05,5.78724653,-4.04442174,-1,-0.9985099491919555
5.94907226e+02,7.99999880,-1.48628710e-09,3.64770659,1.97399899,-2.34509848,7.39732019e-01,4.24450722e-05,5.79085430,-4.03359431,-1,-0.9984093900798439
6.20339796e+02,7.99999876,-1.45450370e-09,3.64816853,1.97028314,-2.34509848,7.39732019e-01,4.24450722e-05,5.79453385,-4.02255224,-1,-0.9983047459425974
6.46851849e+02,7.99999873,-1.42292786e-09,3.64862561,1.96649291,-2.34509848,7.39732019e-01,4.24450722e-05,5.79828694,-4.01128665,-1,-0.998195660194959
6.74531435e+02,7.99999869,-1.39153902e-09,3.64911590,1.96262384,-2.34509848,7.39732019e-01,4.24450722e-05,5.80211788,-3.99978906,-1,-0.9980817705488748
7.03358086e+02,7.99999865,-1.35999503e-09,3.64960805,1.95868182,-2.34509848,7.39732019e-01,4.24450722e-05,5.80602094,-3.98807407,-1,-0.9979631612214022
7.33403120e+02,7.99999861,-1.32888223e-09,3.65014605,1.95466313,-2.34509848,7.39732019e-01,4.24450722e-05,5.80999879,-3.97613381,-1,-0.997839538769504
7.64704540e+02,7.99999857,-1.29839353e-09,3.65063659,1.95057414,-2.34509848,7.39732019e-01,4.24450722e-05,5.81404724,-3.96398071,-1,-0.9977107468271054
7.97331899e+02,7.99999852,-1.26780645e-09,3.65116748,1.94641009,-2.34509848,7.39732019e-01,4.24450722e-05,5.81816865,-3.95160841,-1,-0.9975764992133885
8.31348965e+02,7.99999848,-1.23809734e-09,3.65166507,1.94217652,-2.34509848,7.39732019e-01,4.24450722e-05,5.82235936,-3.93902773,-1,-0.9974365335503341
8.66844292e+02,7.99999844,-1.20813222e-09,3.65220512,1.93786995,-2.34509848,7.39732019e-01,4.24450722e-05,5.82662112,-3.92623323,-1,-0.9972904854761443
9.03805504e+02,7.99999840,-1.17817741e-09,3.65273329,1.93349444,-2.34509848,7.39732019e-01,4.24450722e-05,5.83095080,-3.91323445,-1,-0.9971384059127607
9.42311394e+02,7.99999835,-1.14829086e-09,3.65328301,1.92904917,-2.34509848,7.39732019e-01,4.24450722e-05,5.83534784,-3.90002617,-1,-0.9969799706607213
9.82437972e+02,7.99999831,-1.11870400e-09,3.65385665,1.92453213,-2.34509848,7.39732020e-01,4.24450722e-05,5.83979325,-3.88658006,-1,-0.9968148669714181
1.02425155e+03,7.99999826,-1.08974461e-09,3.65443072,1.91994651,-2.34509852,7.39732022e-01,4.24450720e-05,5.84427127,-3.87287902,-1,-0.9966428219993606
1.06784165e+03,7.99999821,-1.06081372e-09,3.65496972,1.91529600,-2.34509853,7.39732023e-01,4.24450720e-05,5.84877794,-3.85893091,-1,-0.9964634673998456
1.11330148e+03,7.99999817,-1.03191663e-09,3.65558178,1.91057577,-2.34509856,7.39732025e-01,4.24450719e-05,5.85331688,-3.84472319,-1,-0.9962764196618575
1.16063991e+03,7.99999812,-1.00385073e-09,3.65615440,1.90579154,-2.34509859,7.39732027e-01,4.24450717e-05,5.85788689,-3.83026329,-1,-0.9960816422891441
1.20998143e+03,7.99999807,-9.76118608e-10,3.65675027,1.90094380,-2.34509860,7.39732027e-01,4.24450717e-05,5.86248564,-3.81555225,-1,-0.9958786230586522
1.26136623e+03,7.99999802,-9.48379362e-10,3.65732349,1.89603538,-2.34509859,7.39732027e-01,4.24450717e-05,5.86711367,-3.80059160,-1,-0.9956671966057383
1.31493077e+03,7.99999797,-9.21736680e-10,3.65795331,1.89106282,-2.34509859,7.39732027e-01,4.24450718e-05,5.87177341,-3.78537286,-1,-0.9954468014559243
1.37077213e+03,7.99999792,-8.95237759e-10,3.65853317,1.88603484,-2.34509859,7.39732027e-01,4.24450718e-05,5.87645762,-3.76990808,-1,-0.9952170381665725
1.42896508e+03,7.99999787,-8.69563121e-10,3.65916397,1.88094812,-2.34509861,7.39732028e-01,4.24450717e-05,5.88117023,-3.75419105,-1,-0.9949775990911437
1.48959854e+03,7.99999782,-8.43788957e-10,3.65978094,1.87582391,-2.34509861,7.39732028e-01,4.24450718e-05,5.88591147,-3.73831278,-1,-0.9947281183619068
1.55276606e+03,7.99999777,-8.18850322e-10,3.66041015,1.87062962,-2.34509861,7.39732028e-01,4.24450719e-05,5.89067651,-3.72209488,-1,-0.9944682110606627
1.61858130e+03,7.99999771,-7.94509608e-10,3.66107613,1.86538102,-2.34509863,7.39732030e-01,4.24450718e-05,5.89547115,-3.70562180,-1,-0.9941974095251722
1.68712951e+03,7.99999766,-7.70526979e-10,3.66172724,1.86008473,-2.34509863,7.39732030e-01,4.24450719e-05,5.90029213,-3.68890525,-1,-0.9939153629881827
1.75858770e+03,7.99999761,-7.46764007e-10,3.66236931,1.85473965,-2.34509863,7.39732029e-01,4.24450720e-05,5.90514278,-3.67193422,-1,-0.9936213431293268
1.83306514e+03,7.99999755,-7.24028514e-10,3.66300796,1.84935054,-2.34509862,7.39732029e-01,4.24450721e-05,5.91001948,-3.65471750,-1,-0.9933149003493353
1.91062677e+03,7.99999750,-7.01609703e-10,3.66366096,1.84391833,-2.34509862,7.39732029e-01,4.24450723e-05,5.91492389,-3.63725724,-1,-0.9929957674479108
1.99138118e+03,7.99999744,-6.79574835e-10,3.66429252,1.83844891,-2.34509862,7.39732029e-01,4.24450724e-05,5.91985271,-3.61956398,-1,-0.9926634976236933
2.07565460e+03,7.99999739,-6.58282983e-10,3.66498114,1.83293580,-2.34509875,7.39732038e-01,4.24450717e-05,5.92481310,-3.60161201,-1,-0.9923167485798998
2.16343050e+03,7.99999733,-6.37334989e-10,3.66566619,1.82738737,-2.34509875,7.39732038e-01,4.24450719e-05,5.92980073,-3.58342386,-1,-0.9919555883304035
2.25480356e+03,7.99999727,-6.17157969e-10,3.66631970,1.82181865,-2.34509878,7.39732040e-01,4.24450719e-05,5.93473599,-3.56524623,-1,-0.991579627307539
2.35013201e+03,7.99999722,-5.97527966e-10,3.66699817,1.81623011,-2.34509875,7.39732038e-01,4.24450723e-05,5.93974438,-3.54679528,-1,-0.9911873915482236
2.44940061e+03,7.99999716,-5.78249935e-10,3.66765969,1.81059810,-2.34509874,7.39732038e-01,4.24450726e-05,5.94480586,-3.52793874,-1,-0.9907789437585324
2.55280512e+03,7.99999710,-5.59023869e-10,3.66839797,1.80492904,-2.34509889,7.39732047e-01,4.24450720e-05,5.94991785,-3.50882581,-1,-0.9903534784698751
2.66057915e+03,7.99999704,-5.40794233e-10,3.66909183,1.79923842,-2.34509887,7.39732046e-01,4.24450724e-05,5.95506709,-3.48950549,-1,-0.9899100344771159
2.77286795e+03,7.99999698,-5.23040121e-10,3.66976357,1.79352765,-2.34509884,7.39732044e-01,4.24450729e-05,5.96024784,-3.46995931,-1,-0.9894480141386899
2.88987241e+03,7.99999692,-5.05915226e-10,3.67049708,1.78779383,-2.34509885,7.39732045e-01,4.24450733e-05,5.96546536,-3.45016269,-1,-0.9889665908782529
3.01168987e+03,7.99999686,-4.89314723e-10,3.67116366,1.78204054,-2.34509883,7.39732043e-01,4.24450738e-05,5.97071434,-3.43006054,-1,-0.9884653641833787
3.13868576e+03,7.99999680,-4.73246963e-10,3.67186396,1.77627881,-2.34509880,7.39732042e-01,4.24450743e-05,5.97599901,-3.40978341,-1,-0.9879428304660666
3.27102883e+03,7.99999674,-4.57566450e-10,3.67254581,1.77050900,-2.34509881,7.39732042e-01,4.24450748e-05,5.98131795,-3.38928517,-1,-0.9873982953923127
3.40895942e+03,7.99999668,-4.42606286e-10,3.67327873,1.76472731,-2.34509888,7.39732047e-01,4.24450749e-05,5.98667911,-3.36854411,-1,-0.9868307700659124
3.55260287e+03,7.99999661,-4.27995934e-10,3.67396764,1.75894058,-2.34509884,7.39732045e-01,4.24450757e-05,5.99207272,-3.34752690,-1,-0.9862397387664268
3.70227335e+03,7.99999655,-4.14162146e-10,3.67468294,1.75315576,-2.34509904,7.39732058e-01,4.24450751e-05,5.99750487,-3.32630965,-1,-0.9856239088188097
3.85824131e+03,7.99999649,-4.00389583e-10,3.67542147,1.74736835,-2.34509921,7.39732070e-01,4.24450747e-05,6.00298167,-3.30485373,-1,-0.9849821674370974
4.02087020e+03,7.99999643,-3.87162566e-10,3.67618060,1.74158384,-2.34509921,7.39732069e-01,4.24450755e-05,6.00850009,-3.28316126,-1,-0.9843130191801417
4.19025159e+03,7.99999636,-3.74659543e-10,3.67688075,1.73580940,-2.34509921,7.39732070e-01,4.24450762e-05,6.01405862,-3.26123671,-1,-0.9836160872765959
4.36678329e+03,7.99999630,-3.62793655e-10,3.67759065,1.73004546,-2.34509925,7.39732073e-01,4.24450768e-05,6.01965766,-3.23903161,-1,-0.9828897349086223
4.55050783e+03,7.99999623,-3.51010719e-10,3.67827579,1.72430203,-2.34509927,7.39732075e-01,4.24450775e-05,6.02529546,-3.21661383,-1,-0.9821337870834789
4.74238217e+03,7.99999617,-3.39732240e-10,3.67905829,1.71857142,-2.34510011,7.39732130e-01,4.24450734e-05,6.03098996,-3.19396183,-1,-0.9813443063204635
4.94203851e+03,7.99999610,-3.28813480e-10,3.67978268,1.71286563,-2.34509999,7.39732123e-01,4.24450752e-05,6.03672952,-3.17107956,-1,-0.9805228059591123
5.15020681e+03,7.99999603,-3.18212270e-10,3.68047885,1.70719059,-2.34509988,7.39732115e-01,4.24450771e-05,6.04251974,-3.14795323,-1,-0.9796662825265388
5.36705871e+03,7.99999596,-3.08005592e-10,3.68119504,1.70154537,-2.34509978,7.39732109e-01,4.24450788e-05,6.04836530,-3.12457893,-1,-0.9787740297976261
5.59310608e+03,7.99999590,-2.98156889e-10,3.68190928,1.69593468,-2.34509975,7.39732107e-01,4.24450801e-05,6.05426604,-3.10093112,-1,-0.9778439416464685
5.82878196e+03,7.99999583,-2.88900596e-10,3.68267538,1.69035602,-2.34510005,7.39732128e-01,4.24450795e-05,6.06023252,-3.07699728,-1,-0.9768742362988607
6.07422831e+03,7.99999576,-2.79872705e-10,3.68342007,1.68482392,-2.34509986,7.39732116e-01,4.24450819e-05,6.06626203,-3.05282340,-1,-0.9758643296501796
6.33024659e+03,7.99999569,-2.71319281e-10,3.68413313,1.67934784,-2.34509990,7.39732119e-01,4.24450829e-05,6.07236239,-3.02841782,-1,-0.9748109240356495
6.59678383e+03,7.99999562,-2.63000850e-10,3.68484915,1.67392889,-2.34509994,7.39732123e-01,4.24450839e-05,6.07852940,-3.00375432,-1,-0.9737142374041428
6.87496324e+03,7.99999555,-2.55103174e-10,3.68558456,1.66857386,-2.34510100,7.39732193e-01,4.24450792e-05,6.08477489,-2.97880834,-1,-0.9725696482273829
7.16480064e+03,7.99999547,-2.47494896e-10,3.68634866,1.66328370,-2.34510090,7.39732186e-01,4.24450814e-05,6.09110581,-2.95358079,-1,-0.9713770914128429
7.46666801e+03,7.99999540,-2.40358194e-10,3.68705856,1.65807539,-2.34510085,7.39732183e-01,4.24450831e-05,6.09751922,-2.92808950,-1,-0.9701350364220765
7.78178253e+03,7.99999533,-2.33496513e-10,3.68781746,1.65295490,-2.34510087,7.39732185e-01,4.24450843e-05,6.10403014,-2.90227325,-1,-0.9688384750804881
8.11012994e+03,7.99999525,-2.27134414e-10,3.68858895,1.64793032,-2.34510101,7.39732196e-01,4.24450847e-05,6.11064367,-2.87623412,-1,-0.9674874660618726
8.45227431e+03,7.99999517,-2.20981552e-10,3.68933503,1.64301665,-2.34510173,7.39732242e-01,4.24450823e-05,6.11736427,-2.84996338,-1,-0.9660796884596723
8.80945962e+03,7.99999510,-2.15270343e-10,3.69013476,1.63822423,-2.34510355,7.39732366e-01,4.24450729e-05,6.12420732,-2.82345359,-1,-0.9646100238287652
9.18147303e+03,7.99999502,-2.09852590e-10,3.69087232,1.63355575,-2.34510283,7.39732317e-01,4.24450784e-05,6.13116210,-2.79653913,-1,-0.9630793479146293
9.56933100e+03,7.99999494,-2.04733817e-10,3.69161679,1.62903650,-2.34510266,7.39732307e-01,4.24450805e-05,6.13824397,-2.76929112,-1,-0.9614834784195361
9.97408832e+03,7.99999486,-1.99962273e-10,3.69236095,1.62469636,-2.34510270,7.39732311e-01,4.24450813e-05,6.14546873,-2.74179920,-1,-0.9598180753342167
1.03958336e+04,7.99999477,-1.95537297e-10,3.69315100,1.62053544,-2.34510259,7.39732299e-01,4.24450837e-05,6.15284408,-2.71403666,-1,-0.9580827740664574
1.08359928e+04,7.99999469,-1.91593237e-10,3.69394852,1.61658163,-2.34510285,7.39732323e-01,4.24450821e-05,6.16039993,-2.68590714,-1,-0.9562717074013464
1.12950205e+04,7.99999460,-1.87974052e-10,3.69471114,1.61287792,-2.34510285,7.39732325e-01,4.24450827e-05,6.16812011,-2.65769980,-1,-0.9543830049368003
1.17734455e+04,7.99999451,-1.84724098e-10,3.69547423,1.60943368,-2.34510308,7.39732343e-01,4.24450818e-05,6.17602559,-2.62919497,-1,-0.9524144908872115
1.22730097e+04,7.99999442,-1.81916815e-10,3.69625451,1.60630419,-2.34510325,7.39732358e-01,4.24450811e-05,6.18416662,-2.60053169,-1,-0.9503589980798298
1.27933035e+04,7.99999433,-1.79638482e-10,3.69709814,1.60349165,-2.34510405,7.39732416e-01,4.24450763e-05,6.19249485,-2.57168759,-1,-0.9482182118432955
1.33367779e+04,7.99999423,-1.77786350e-10,3.69788803,1.60107882,-2.34510363,7.39732390e-01,4.24450790e-05,6.20106858,-2.54280101,-1,-0.9459820473619414
1.39026389e+04,7.99999413,-1.76430796e-10,3.69868729,1.59908095,-2.34510376,7.39732401e-01,4.24450781e-05,6.20986988,-2.51381258,-1,-0.9436537716058366
1.44932674e+04,7.99999403,-1.75710130e-10,3.69954565,1.59758732,-2.34510749,7.39732639e-01,4.24450592e-05,6.21889752,-2.48497253,-1,-0.9412235881908029
1.51078750e+04,7.99999392,-1.75616505e-10,3.70037919,1.59660964,-2.34510636,7.39732565e-01,4.24450655e-05,6.22814364,-2.45611656,-1,-0.9386947410453066
1.57489182e+04,7.99999381,-1.76246112e-10,3.70122749,1.59623658,-2.34510634,7.39732565e-01,4.24450655e-05,6.23746685,-2.42739038,-1,-0.9360571227235355
1.64149070e+04,7.99999369,-1.77624592e-10,3.70209461,1.59646032,-2.34510642,7.39732572e-01,4.24450649e-05,6.24681078,-2.39847728,-1,-0.9333168639375841
1.71077796e+04,7.99999356,-1.79938724e-10,3.70298974,1.59738154,-2.34510634,7.39732568e-01,4.24450652e-05,6.25603125,-2.36944147,-1,-0.9304659898242431
1.78265649e+04,7.99999343,-1.83211415e-10,3.70391915,1.59895825,-2.34510614,7.39732554e-01,4.24450663e-05,6.26507661,-2.33989495,-1,-0.9275084960442611
1.85712149e+04,7.99999330,-1.87524429e-10,3.70490003,1.60119569,-2.34510586,7.39732535e-01,4.24450680e-05,6.27391385,-2.30958281,-1,-0.924444580097088
1.93417265e+04,7.99999315,-1.92962743e-10,3.70593759,1.60408823,-2.34510555,7.39732513e-01,4.24450698e-05,6.28267057,-2.27855915,-1,-0.9212742547378966
2.01375632e+04,7.99999299,-1.99534252e-10,3.70705137,1.60754635,-2.34510516,7.39732483e-01,4.24450724e-05,6.29167152,-2.24644039,-1,-0.9179997274344982
2.09589852e+04,7.99999282,-2.07295311e-10,3.70826324,1.61150568,-2.34510473,7.39732445e-01,4.24450756e-05,6.30103127,-2.21312333,-1,-0.9146199275752906
2.18062857e+04,7.99999264,-2.16185816e-10,3.70959160,1.61582105,-2.34510433,7.39732400e-01,4.24450795e-05,6.31084997,-2.17904136,-1,-0.9111336487678002
2.26804875e+04,7.99999245,-2.26046900e-10,3.71107413,1.62026211,-2.34510393,7.39732342e-01,4.24450844e-05,6.32124209,-2.14402847,-1,-0.9075366826279124
2.35838928e+04,7.99999224,-2.36604680e-10,3.71275008,1.62454708,-2.34510329,7.39732267e-01,4.24450909e-05,6.33225615,-2.10799424,-1,-0.9038195565882553
2.45181666e+04,7.99999201,-2.47490415e-10,3.71466608,1.62837518,-2.34510197,7.39732177e-01,4.24450986e-05,6.34394869,-2.07075378,-1,-0.8999754198866559
2.54842300e+04,7.99999177,-2.58340326e-10,3.71689506,1.63148272,-2.34510272,7.39732313e-01,4.24450867e-05,6.35628733,-2.03220858,-1,-0.8960004825909594
2.64849125e+04,7.99999150,-2.68861474e-10,3.71943290,1.63373506,-2.34509929,7.39732055e-01,4.24451092e-05,6.36907235,-1.99281630,-1,-0.8918831025200442
2.75164174e+04,7.99999122,-2.79092325e-10,3.72235685,1.63511429,-2.34509867,7.39732030e-01,4.24451114e-05,6.38242220,-1.95248180,-1,-0.8876389014689501
2.85740564e+04,7.99999092,-2.88822336e-10,3.72582135,1.63531197,-2.34509977,7.39732113e-01,4.24451040e-05,6.39622840,-1.91126268,-1,-0.8832871697850017
2.96501872e+04,7.99999060,-2.97394146e-10,3.73006252,1.63368726,-2.34509849,7.39732025e-01,4.24451117e-05,6.41030418,-1.86974313,-1,-0.8788593522608438
3.07252901e+04,7.99999028,-3.03415826e-10,3.73547715,1.62911381,-2.34509849,7.39732028e-01,4.24451114e-05,6.42434848,-1.82858668,-1,-0.8744357641051168
3.17915123e+04,7.99998995,-3.06539864e-10,3.74191619,1.62183752,-2.34509851,7.39732034e-01,4.24451107e-05,6.43823860,-1.78797827,-1,-0.8700487162278456
3.28535839e+04,7.99998962,-3.07297406e-10,3.74907358,1.61251469,-2.34509856,7.39732048e-01,4.24451092e-05,6.45196709,-1.74790539,-1,-0.8656787462926012
3.39073662e+04,7.99998930,-3.05897083e-10,3.75686484,1.60132951,-2.34509870,7.39732075e-01,4.24451063e-05,6.46546201,-1.70836651,-1,-0.8613428832780055
3.49562864e+04,7.99998898,-3.02137389e-10,3.76517965,1.58833537,-2.34509885,7.39732111e-01,4.24451022e-05,6.47864270,-1.66972003,-1,-0.857027025723326
3.60135424e+04,7.99998867,-2.96881084e-10,3.77377139,1.57425621,-2.34509908,7.39732161e-01,4.24450968e-05,6.49175044,-1.63097752,-1,-0.8526768699204059
3.70951570e+04,7.99998835,-2.90447233e-10,3.78246429,1.55941686,-2.34509936,7.39732222e-01,4.24450902e-05,6.50492974,-1.59177233,-1,-0.8482264889069966
3.82030027e+04,7.99998803,-2.83157765e-10,3.79122420,1.54399146,-2.34510047,7.39732569e-01,4.24450550e-05,6.51821384,-1.55193654,-1,-0.8436681781472609
3.93464453e+04,7.99998771,-2.75009678e-10,3.79997943,1.52803142,-2.34510397,7.39733547e-01,4.24449575e-05,6.53159155,-1.51155539,-1,-0.8389634013839262
