star_age,star_mass,star_mdot,log_Teff,log_R,log_surf_z,surface_h1,surface_he3,log_center_T,log_center_Rho,phase,x
1.14427794e+02,2.39999551e+01,-3.34926161e-07,3.63484565,2.44876314,-2.34509857,7.39732025e-01,4.24450718e-05,5.71899151,-4.89898637,-1,-1.0
1.18855203e+02,2.39999537e+01,-3.31198357e-07,3.63507568,2.44705176,-2.34509857,7.39732025e-01,4.24450717e-05,5.72069647,-4.89258229,-1,-0.9998904644071999
1.23435874e+02,2.39999522e+01,-3.27444111e-07,3.63531060,2.44530137,-2.34509857,7.39732025e-01,4.24450717e-05,5.72244439,-4.88600358,-1,-0.9997771370607976
1.28181081e+02,2.39999506e+01,-3.23659606e-07,3.63554926,2.44351023,-2.34509857,7.39732025e-01,4.24450717e-05,5.72423760,-4.87923936,-1,-0.9996597390382286
1.33100472e+02,2.39999490e+01,-3.19834536e-07,3.63579212,2.44167708,-2.34509857,7.39732026e-01,4.24450717e-05,5.72607798,-4.87228140,-1,-0.9995380316447168
1.38203920e+02,2.39999474e+01,-3.15952297e-07,3.63604226,2.43980053,-2.34509858,7.39732026e-01,4.24450717e-05,5.72796753,-4.86512179,-1,-0.9994117706189103
1.43517057e+02,2.39999458e+01,-3.12026620e-07,3.63630245,2.43787632,-2.34509858,7.39732026e-01,4.24450717e-05,5.72991121,-4.85773382,-1,-0.9992803218164791
1.49044380e+02,2.39999441e+01,-3.08072378e-07,3.63656770,2.43590551,-2.34509858,7.39732026e-01,4.24450717e-05,5.73190931,-4.85011735,-1,-0.9991435739801254
1.54778305e+02,2.39999423e+01,-3.04068102e-07,3.63684186,2.43389133,-2.34509859,7.39732027e-01,4.24450716e-05,5.73395855,-4.84228547,-1,-0.9990017147405686
1.60728418e+02,2.39999406e+01,-3.00037124e-07,3.63712024,2.43183343,-2.34509860,7.39732027e-01,4.24450715e-05,5.73606050,-4.83423120,-1,-0.9988545069369339
1.66904368e+02,2.39999387e+01,-2.95977145e-07,3.63740291,2.42973187,-2.34509861,7.39732028e-01,4.24450715e-05,5.73821609,-4.82594633,-1,-0.9987017118497048
1.73315652e+02,2.39999369e+01,-2.91897080e-07,3.63769097,2.42758673,-2.34509862,7.39732028e-01,4.24450715e-05,5.74042639,-4.81742892,-1,-0.9985430945198963
1.79971068e+02,2.39999349e+01,-2.87794901e-07,3.63798600,2.42539264,-2.34509862,7.39732029e-01,4.24450715e-05,5.74269955,-4.80864709,-1,-0.9983784372820194
1.86879359e+02,2.39999330e+01,-2.83638448e-07,3.63829390,2.42315185,-2.34509862,7.39732029e-01,4.24450714e-05,5.74503362,-4.79960461,-1,-0.9982075238313034
1.94049999e+02,2.39999310e+01,-2.79470185e-07,3.63860258,2.42087511,-2.34509862,7.39732029e-01,4.24450714e-05,5.74741706,-4.79034369,-1,-0.9980301197777912
2.01493063e+02,2.39999289e+01,-2.75316843e-07,3.63891918,2.41855932,-2.34509863,7.39732029e-01,4.24450714e-05,5.74985579,-4.78083811,-1,-0.9978459758625827
2.09217712e+02,2.39999268e+01,-2.71193755e-07,3.63924476,2.41619426,-2.34509863,7.39732029e-01,4.24450714e-05,5.75236504,-4.77103794,-1,-0.9976548654394463
2.17235890e+02,2.39999247e+01,-2.66980688e-07,3.63957523,2.41378704,-2.34509863,7.39732029e-01,4.24450714e-05,5.75493760,-4.76096317,-1,-0.9974564930097911
2.25583925e+02,2.39999225e+01,-2.62755241e-07,3.63990824,2.41134744,-2.34509863,7.39732029e-01,4.24450714e-05,5.75756478,-4.75063998,-1,-0.9972499598066374
2.34245244e+02,2.39999202e+01,-2.58621126e-07,3.64025171,2.40886734,-2.34509863,7.39732029e-01,4.24450714e-05,5.76025877,-4.74003084,-1,-0.9970356758515982
2.43229008e+02,2.39999180e+01,-2.54487076e-07,3.64060023,2.40634386,-2.34509864,7.39732030e-01,4.24450714e-05,5.76302542,-4.72911151,-1,-0.996813414498442
2.52546574e+02,2.39999156e+01,-2.50303340e-07,3.64095367,2.40379160,-2.34509864,7.39732030e-01,4.24450714e-05,5.76584915,-4.71794110,-1,-0.9965828947711557
2.62208403e+02,2.39999132e+01,-2.46178867e-07,3.64131428,2.40121078,-2.34509864,7.39732030e-01,4.24450713e-05,5.76873251,-4.70650478,-1,-0.9963438578610694
2.72263327e+02,2.39999108e+01,-2.42075408e-07,3.64168484,2.39858698,-2.34509864,7.39732030e-01,4.24450713e-05,5.77170033,-4.69470825,-1,-0.9960950956480232
2.82705898e+02,2.39999083e+01,-2.37959906e-07,3.64205448,2.39594130,-2.34509864,7.39732030e-01,4.24450713e-05,5.77472837,-4.68264442,-1,-0.9958367429173759
2.93527720e+02,2.39999058e+01,-2.33915440e-07,3.64243278,2.39326904,-2.34509865,7.39732030e-01,4.24450713e-05,5.77782488,-4.67028215,-1,-0.9955690073890008
3.04744525e+02,2.39999032e+01,-2.29915948e-07,3.64282079,2.39057202,-2.34509865,7.39732031e-01,4.24450713e-05,5.78099161,-4.65761542,-1,-0.9952914998479088
3.16436873e+02,2.39999005e+01,-2.25963719e-07,3.64321087,2.38785034,-2.34509865,7.39732031e-01,4.24450713e-05,5.78424067,-4.64459035,-1,-0.9950022272125129
3.28546864e+02,2.39998979e+01,-2.22032594e-07,3.64360680,2.38511025,-2.34509866,7.39732031e-01,4.24450713e-05,5.78756134,-4.63125404,-1,-0.9947026219483529
3.41094716e+02,2.39998951e+01,-2.18134915e-07,3.64400447,2.38235436,-2.34509866,7.39732031e-01,4.24450712e-05,5.79095626,-4.61759743,-1,-0.9943921838552857
3.54170734e+02,2.39998923e+01,-2.14334115e-07,3.64441008,2.37957846,-2.34509866,7.39732031e-01,4.24450712e-05,5.79444929,-4.60352895,-1,-0.9940686787571357
3.67706815e+02,2.39998894e+01,-2.10586842e-07,3.64482359,2.37680114,-2.34509867,7.39732032e-01,4.24450712e-05,5.79800743,-4.58916904,-1,-0.9937337915451059
3.81766491e+02,2.39998865e+01,-2.06897440e-07,3.64524338,2.37401251,-2.34509867,7.39732032e-01,4.24450712e-05,5.80166332,-4.57441363,-1,-0.9933859504160758
3.96373824e+02,2.39998836e+01,-2.03285201e-07,3.64566471,2.37123146,-2.34509867,7.39732032e-01,4.24450711e-05,5.80539679,-4.55932108,-1,-0.9930245600680452
4.11498701e+02,2.39998805e+01,-1.99742276e-07,3.64608949,2.36845539,-2.34509868,7.39732033e-01,4.24450711e-05,5.80921397,-4.54388656,-1,-0.9926503655067963
4.27255767e+02,2.39998774e+01,-1.96318748e-07,3.64651709,2.36569185,-2.34509868,7.39732033e-01,4.24450711e-05,5.81313372,-4.52803852,-1,-0.9922605303763394
4.43554677e+02,2.39998743e+01,-1.92966405e-07,3.64695506,2.36294319,-2.34509869,7.39732033e-01,4.24450711e-05,5.81714062,-4.51184209,-1,-0.9918572898424637
4.60528180e+02,2.39998710e+01,-1.89716985e-07,3.64739082,2.36022037,-2.34509869,7.39732033e-01,4.24450710e-05,5.82125611,-4.49521591,-1,-0.9914373596501097
4.78101675e+02,2.39998677e+01,-1.86572376e-07,3.64783319,2.35752616,-2.34509870,7.39732034e-01,4.24450710e-05,5.82546796,-4.47821379,-1,-0.9910025854531933
4.96380488e+02,2.39998644e+01,-1.83544670e-07,3.64828349,2.35487278,-2.34509870,7.39732034e-01,4.24450710e-05,5.82979324,-4.46077755,-1,-0.9905503614509297
5.15323593e+02,2.39998610e+01,-1.80623584e-07,3.64873341,2.35226523,-2.34509871,7.39732035e-01,4.24450710e-05,5.83422382,-4.44293996,-1,-0.9900817026404041
5.35014875e+02,2.39998574e+01,-1.77837449e-07,3.64918301,2.34971817,-2.34509876,7.39732038e-01,4.24450707e-05,5.83877263,-4.42465226,-1,-0.9895945336784074
5.55429736e+02,2.39998539e+01,-1.75209418e-07,3.64964137,2.34723711,-2.34509878,7.39732040e-01,4.24450705e-05,5.84343735,-4.40593354,-1,-0.9890894631277609
5.76648029e+02,2.39998502e+01,-1.72742188e-07,3.65010131,2.34483948,-2.34509879,7.39732040e-01,4.24450705e-05,5.84823187,-4.38673903,-1,-0.988564515398296
5.98653392e+02,2.39998464e+01,-1.70413084e-07,3.65056117,2.34253347,-2.34509878,7.39732040e-01,4.24450705e-05,5.85315434,-4.36708086,-1,-0.9880200952914148
6.21504644e+02,2.39998426e+01,-1.68254911e-07,3.65102432,2.34033684,-2.34509878,7.39732039e-01,4.24450706e-05,5.85821770,-4.34693014,-1,-0.987454747605207
6.45229178e+02,2.39998386e+01,-1.66283782e-07,3.65149072,2.33826566,-2.34509878,7.39732039e-01,4.24450706e-05,5.86342838,-4.32627827,-1,-0.9868677946276083
6.69833736e+02,2.39998346e+01,-1.64504592e-07,3.65195762,2.33633505,-2.34509877,7.39732039e-01,4.24450706e-05,5.86879010,-4.30512000,-1,-0.9862590695592636
6.95413960e+02,2.39998304e+01,-1.62975015e-07,3.65242623,2.33457698,-2.34509877,7.39732039e-01,4.24450706e-05,5.87432433,-4.28340275,-1,-0.9856262061848158
7.21880252e+02,2.39998261e+01,-1.61667254e-07,3.65289449,2.33299192,-2.34509878,7.39732039e-01,4.24450706e-05,5.88001821,-4.26117860,-1,-0.9849714211890221
7.49469396e+02,2.39998217e+01,-1.60646846e-07,3.65336160,2.33164995,-2.34509878,7.39732039e-01,4.24450706e-05,5.88591758,-4.23832005,-1,-0.984288856455814
7.78021359e+02,2.39998171e+01,-1.59896277e-07,3.65382920,2.33053915,-2.34509878,7.39732039e-01,4.24450706e-05,5.89199666,-4.21490943,-1,-0.9835824712556184
8.07622637e+02,2.39998124e+01,-1.59462121e-07,3.65430008,2.32970558,-2.34509878,7.39732039e-01,4.24450705e-05,5.89827809,-4.19089487,-1,-0.9828501256482052
8.38410738e+02,2.39998075e+01,-1.59447873e-07,3.65476812,2.32922196,-2.34509878,7.39732040e-01,4.24450705e-05,5.90479612,-4.16619360,-1,-0.9820884176392488
8.70258423e+02,2.39998024e+01,-1.59837397e-07,3.65523240,2.32908836,-2.34509879,7.39732040e-01,4.24450705e-05,5.91153218,-4.14087119,-1,-0.9813004951645492
9.03269142e+02,2.39997971e+01,-1.60736049e-07,3.65569590,2.32938397,-2.34509879,7.39732040e-01,4.24450705e-05,5.91851411,-4.11486424,-1,-0.9804837988361946
9.37516001e+02,2.39997915e+01,-1.62283575e-07,3.65615428,2.33019515,-2.34509879,7.39732040e-01,4.24450705e-05,5.92575647,-4.08815442,-1,-0.9796365199870737
9.72844569e+02,2.39997857e+01,-1.64512753e-07,3.65660647,2.33151945,-2.34509879,7.39732040e-01,4.24450705e-05,5.93327364,-4.06074452,-1,-0.9787624792922429
1.00947787e+03,2.39997796e+01,-1.67765348e-07,3.65705364,2.33356100,-2.34509879,7.39732040e-01,4.24450705e-05,5.94110976,-4.03253050,-1,-0.9778561590626773
1.04719695e+03,2.39997732e+01,-1.72109792e-07,3.65749485,2.33630366,-2.34509878,7.39732040e-01,4.24450705e-05,5.94922916,-4.00362711,-1,-0.9769229762942283
1.08603325e+03,2.39997663e+01,-1.77844587e-07,3.65792766,2.33989529,-2.34509878,7.39732040e-01,4.24450705e-05,5.95765951,-3.97399266,-1,-0.9759621531259454
1.12590861e+03,2.39997590e+01,-1.85271132e-07,3.65835237,2.34445862,-2.34509877,7.39732039e-01,4.24450706e-05,5.96640977,-3.94366533,-1,-0.9749756232626057
1.16667487e+03,2.39997512e+01,-1.94686115e-07,3.65876558,2.35007045,-2.34509876,7.39732039e-01,4.24450706e-05,5.97546940,-3.91271920,-1,-0.9739670522326094
1.20816961e+03,2.39997428e+01,-2.06491329e-07,3.65917348,2.35681458,-2.34509875,7.39732038e-01,4.24450706e-05,5.98483140,-3.88123377,-1,-0.9729404583615694
1.25018740e+03,2.39997337e+01,-2.21124517e-07,3.65958091,2.36473590,-2.34509874,7.39732037e-01,4.24450707e-05,5.99447280,-3.84930912,-1,-0.9719009240570129
1.29252885e+03,2.39997239e+01,-2.39130260e-07,3.65998755,2.37383403,-2.34509872,7.39732036e-01,4.24450708e-05,6.00437541,-3.81703178,-1,-0.9708533822948293
1.33502545e+03,2.39997131e+01,-2.60977368e-07,3.66038812,2.38405163,-2.34509869,7.39732034e-01,4.24450710e-05,6.01452815,-3.78448826,-1,-0.9698020020692865
1.37750500e+03,2.39997013e+01,-2.87265236e-07,3.66080776,2.39529020,-2.34509868,7.39732033e-01,4.24450711e-05,6.02491178,-3.75175182,-1,-0.9687510436664976
1.41981190e+03,2.39996884e+01,-3.18693831e-07,3.66127720,2.40740381,-2.34509866,7.39732031e-01,4.24450712e-05,6.03550160,-3.71889040,-1,-0.9677043566829737
1.45869464e+03,2.39996751e+01,-3.57016056e-07,3.66217328,2.42101643,-2.34509863,7.39732030e-01,4.24450713e-05,6.04549096,-3.68837012,-1,-0.9667423845734185
1.49341276e+03,2.39996616e+01,-4.11514170e-07,3.66403220,2.43463279,-2.34509861,7.39732029e-01,4.24450714e-05,6.05469870,-3.66071913,-1,-0.9658834465681188
1.53255015e+03,2.39996442e+01,-4.64910664e-07,3.66647231,2.44527661,-2.34509859,7.39732027e-01,4.24450716e-05,6.06540982,-3.62907292,-1,-0.9649151743316254
1.57536093e+03,2.39996229e+01,-5.15571282e-07,3.66939429,2.45329836,-2.34509857,7.39732026e-01,4.24450717e-05,6.07743236,-3.59402956,-1,-0.9638560211868547
1.61973224e+03,2.39995987e+01,-5.67317984e-07,3.67287726,2.45939174,-2.34509856,7.39732025e-01,4.24450717e-05,6.09014943,-3.55739139,-1,-0.9627582600032439
1.66469598e+03,2.39995718e+01,-6.19523820e-07,3.67709158,2.46340750,-2.34509856,7.39732025e-01,4.24450718e-05,6.10325839,-3.52003559,-1,-0.9616458419015028
1.70961665e+03,2.39995426e+01,-6.70757802e-07,3.68212870,2.46514652,-2.34509855,7.39732024e-01,4.24450718e-05,6.11655940,-3.48256951,-1,-0.9605344893660969
1.75433538e+03,2.39995113e+01,-7.20310037e-07,3.68786456,2.46487962,-2.34509854,7.39732024e-01,4.24450718e-05,6.12996722,-3.44518098,-1,-0.9594281328944405
1.79898949e+03,2.39994779e+01,-7.68147669e-07,3.69412137,2.46303164,-2.34509854,7.39732023e-01,4.24450719e-05,6.14348710,-3.40779938,-1,-0.9583233751433918
1.84358959e+03,2.39994425e+01,-8.14339974e-07,3.70080756,2.45981801,-2.34509854,7.39732023e-01,4.24450719e-05,6.15719341,-3.37019147,-1,-0.9572199536179702
1.88825151e+03,2.39994050e+01,-8.58145459e-07,3.70787410,2.45530918,-2.34509854,7.39732024e-01,4.24450719e-05,6.17095787,-3.33277569,-1,-0.9561150026448858
1.93292385e+03,2.39993656e+01,-8.98387722e-07,3.71531111,2.44944434,-2.34509853,7.39732023e-01,4.24450719e-05,6.18476991,-3.29546754,-1,-0.955009793877485
1.97751693e+03,2.39993247e+01,-9.34117533e-07,3.72310234,2.44221558,-2.34509852,7.39732023e-01,4.24450719e-05,6.19860340,-3.25829546,-1,-0.9539065460292324
2.02215547e+03,2.39992822e+01,-9.64200387e-07,3.73122390,2.43358810,-2.34509852,7.39732022e-01,4.24450720e-05,6.21231390,-3.22174003,-1,-0.9528021734852382
2.06667241e+03,2.39992387e+01,-9.87657909e-07,3.73966010,2.42355481,-2.34509852,7.39732022e-01,4.24450720e-05,6.22596676,-3.18551408,-1,-0.951700809366281
2.11105341e+03,2.39991944e+01,-1.00393931e-06,3.74837998,2.41216070,-2.34509853,7.39732023e-01,4.24450719e-05,6.23951295,-3.14971081,-1,-0.9506028084488001
2.15523247e+03,2.39991498e+01,-1.01344335e-06,3.75734520,2.39954806,-2.34509852,7.39732023e-01,4.24450719e-05,6.25294492,-3.11428512,-1,-0.949509803595069
2.19935354e+03,2.39991050e+01,-1.01600269e-06,3.76651831,2.38577548,-2.34509853,7.39732024e-01,4.24450718e-05,6.26622017,-3.07937364,-1,-0.948418233433508
2.24367187e+03,2.39990601e+01,-1.01135068e-06,3.77586175,2.37086858,-2.34509854,7.39732025e-01,4.24450717e-05,6.27926455,-3.04524695,-1,-0.9473217829929766
2.28812561e+03,2.39990154e+01,-1.00020765e-06,3.78534258,2.35497530,-2.34509854,7.39732026e-01,4.24450716e-05,6.29220654,-3.01145810,-1,-0.9462219824633479
2.33289447e+03,2.39989710e+01,-9.83674136e-07,3.79492614,2.33823612,-2.34509855,7.39732027e-01,4.24450715e-05,6.30499937,-2.97816730,-1,-0.9451143857585739
2.37815746e+03,2.39989269e+01,-9.62353886e-07,3.80458285,2.32074094,-2.34509867,7.39732035e-01,4.24450708e-05,6.31765967,-2.94535113,-1,-0.9439945641108434
2.42403528e+03,2.39988834e+01,-9.37462135e-07,3.81428554,2.30264901,-2.34509876,7.39732042e-01,4.24450702e-05,6.33025384,-2.91281271,-1,-0.9428595313614231
2.47085875e+03,2.39988402e+01,-9.09357730e-07,3.82400698,2.28400100,-2.34509863,7.39732030e-01,4.24450712e-05,6.34273107,-2.88079320,-1,-0.9417011029118695
2.51878712e+03,2.39987975e+01,-8.78813698e-07,3.83372750,2.26489181,-2.34509852,7.39732027e-01,4.24450715e-05,6.35513571,-2.84917207,-1,-0.9405153388634397
2.56795450e+03,2.39987551e+01,-8.46751152e-07,3.84343221,2.24544001,-2.34509852,7.39732027e-01,4.24450714e-05,6.36749506,-2.81785929,-1,-0.939298921289475
2.61861705e+03,2.39987132e+01,-8.13444738e-07,3.85310300,2.22567375,-2.34509849,7.39732028e-01,4.24450714e-05,6.37976522,-2.78695582,-1,-0.9380455127051276
2.67097030e+03,2.39986716e+01,-7.79198598e-07,3.86272508,2.20563428,-2.34509848,7.39732029e-01,4.24450713e-05,6.39190724,-2.75642369,-1,-0.9367502756322111
2.72517800e+03,2.39986305e+01,-7.44376424e-07,3.87228523,2.18536081,-2.34509847,7.39732030e-01,4.24450711e-05,6.40385702,-2.72616318,-1,-0.935409158840464
2.78141531e+03,2.39985897e+01,-7.09282880e-07,3.88176913,2.16489235,-2.34509847,7.39732032e-01,4.24450709e-05,6.41554219,-2.69598027,-1,-0.9340178288123742
2.83986020e+03,2.39985495e+01,-6.74241238e-07,3.89116137,2.14427827,-2.34509849,7.39732034e-01,4.24450707e-05,6.42691570,-2.66559737,-1,-0.9325718825100812
2.90070638e+03,2.39985097e+01,-6.39512803e-07,3.90044576,2.12356175,-2.34509852,7.39732031e-01,4.24450710e-05,6.43797266,-2.63478982,-1,-0.9310665274828126
2.96412606e+03,2.39984703e+01,-6.05410397e-07,3.90960983,2.10280811,-2.34509852,7.39732032e-01,4.24450710e-05,6.44880444,-2.60336401,-1,-0.9294975031970519
3.03031444e+03,2.39984316e+01,-5.72370350e-07,3.91864298,2.08209099,-2.34509854,7.39732032e-01,4.24450709e-05,6.45955688,-2.57122429,-1,-0.927859980338924
3.09937047e+03,2.39983933e+01,-5.40660843e-07,3.92754480,2.06149177,-2.34509853,7.39732034e-01,4.24450707e-05,6.47038754,-2.53827470,-1,-0.9261515108520358
3.17167885e+03,2.39983555e+01,-5.10316055e-07,3.93629095,2.04103016,-2.34509856,7.39732036e-01,4.24450705e-05,6.48132567,-2.50469311,-1,-0.9243625771285606
3.24719670e+03,2.39983182e+01,-4.81756756e-07,3.94489720,2.02081180,-2.34509858,7.39732037e-01,4.24450705e-05,6.49246205,-2.47028779,-1,-0.9224942400341692
3.32617815e+03,2.39982814e+01,-4.54950213e-07,3.95335459,2.00088672,-2.34509859,7.39732040e-01,4.24450701e-05,6.50380145,-2.43507981,-1,-0.9205402123068993
3.40888161e+03,2.39982450e+01,-4.30015738e-07,3.96165274,1.98130320,-2.34509859,7.39732042e-01,4.24450699e-05,6.51532137,-2.39915855,-1,-0.9184941007961437
3.49540863e+03,2.39982090e+01,-4.07030645e-07,3.96980068,1.96215468,-2.34509868,7.39732039e-01,4.24450702e-05,6.52703652,-2.36247636,-1,-0.916353393120632
3.58582108e+03,2.39981733e+01,-3.86237479e-07,3.97781078,1.94352214,-2.34509877,7.39732041e-01,4.24450701e-05,6.53895201,-2.32502941,-1,-0.9141165585956845
3.68005995e+03,2.39981380e+01,-3.67701893e-07,3.98570687,1.92549716,-2.34509897,7.39732052e-01,4.24450689e-05,6.55107172,-2.28682560,-1,-0.9117850571486157
3.77807872e+03,2.39981029e+01,-3.51520299e-07,3.99350741,1.90813983,-2.34509869,7.39732062e-01,4.24450679e-05,6.56336963,-2.24797381,-1,-0.909360039699925
3.87970693e+03,2.39980680e+01,-3.37454966e-07,4.00123723,1.89149843,-2.34509872,7.39732048e-01,4.24450693e-05,6.57582429,-2.20857121,-1,-0.9068457234875381
3.98469702e+03,2.39980365e+01,-2.74341582e-07,4.00892236,1.87558720,-2.34509876,7.39732055e-01,4.24450686e-05,6.58840756,-2.16874745,-1,-0.9042482332294006
4.09291122e+03,2.39980107e+01,-2.14939116e-07,4.01657374,1.86037314,-2.34509890,7.39732064e-01,4.24450677e-05,6.60107429,-2.12868292,-1,-0.9015709774018065
4.20357259e+03,2.39979906e+01,-1.59106738e-07,4.02424461,1.84580098,-2.34509886,7.39732089e-01,4.24450651e-05,6.61386298,-2.08829020,-1,-0.8988331777625534
4.31678053e+03,2.39979763e+01,-1.05893381e-07,4.03192654,1.83175793,-2.34509894,7.39732096e-01,4.24450644e-05,6.62672650,-2.04775912,-1,-0.8960323751220964
4.43225815e+03,2.39979676e+01,-5.45951150e-08,4.03963659,1.81814466,-2.34509898,7.39732120e-01,4.24450620e-05,6.63967188,-2.00708677,-1,-0.8931754198324792
4.55008688e+03,2.39979634e+01,-3.35052246e-08,4.04737242,1.80484656,-2.34509913,7.39732181e-01,4.24450559e-05,6.65268951,-1.96633219,-1,-0.8902602972880208
4.67006114e+03,2.39979593e+01,-3.50054720e-08,4.05514743,1.79178019,-2.34509918,7.39732195e-01,4.24450544e-05,6.66579939,-1.92543708,-1,-0.8872920936072997
4.79243751e+03,2.39979549e+01,-3.66581584e-08,4.06295155,1.77886867,-2.34509928,7.39732173e-01,4.24450565e-05,6.67898579,-1.88446689,-1,-0.8842644609145262
4.91714634e+03,2.39979502e+01,-3.84708905e-08,4.07079234,1.76606526,-2.34509904,7.39732156e-01,4.24450581e-05,6.69226011,-1.84339191,-1,-0.8811791223742056
5.04409034e+03,2.39979451e+01,-4.04429662e-08,4.07867555,1.75333236,-2.34509912,7.39732155e-01,4.24450581e-05,6.70563172,-1.80217672,-1,-0.8780384849737709
5.17342051e+03,2.39979397e+01,-4.25727750e-08,4.08659570,1.74064164,-2.34509904,7.39732148e-01,4.24450587e-05,6.71908921,-1.76086000,-1,-0.8748388129222634
5.30515557e+03,2.39979339e+01,-4.48671988e-08,4.09455346,1.72797910,-2.34509918,7.39732133e-01,4.24450601e-05,6.73262793,-1.71945605,-1,-0.8715796430805655
5.43933252e+03,2.39979277e+01,-4.73364017e-08,4.10254961,1.71533246,-2.34509909,7.39732133e-01,4.24450599e-05,6.74624477,-1.67797840,-1,-0.8682600600561905
5.57595807e+03,2.39979210e+01,-4.99897983e-08,4.11058460,1.70269051,-2.34509920,7.39732137e-01,4.24450593e-05,6.75993591,-1.63643856,-1,-0.8648798978414741
