star_age,star_mass,star_mdot,log_L,log_Teff,log_R,log_surf_z,v_wind_Km_per_s,log_center_T,log_center_Rho,phase,x
1.05705260e+02,2.59999479e+01,-4.24218978e-07,4.44979828,3.63499422,2.47758784,-2.34509855,4.85113988e-03,5.71828708,-4.93911427,-1,-1.0
1.09792557e+02,2.59999462e+01,-4.19767311e-07,4.44739986,3.63521065,2.47595579,-2.34509855,4.83562151e-03,5.71994879,-4.93277761,-1,-0.9998878834713079
1.14016867e+02,2.59999444e+01,-4.15246536e-07,4.44497315,3.63543824,2.47428726,-2.34509855,4.81970534e-03,5.72165213,-4.92626987,-1,-0.9997720086099215
1.18388609e+02,2.59999426e+01,-4.10680821e-07,4.44249824,3.63567284,2.47258060,-2.34509855,4.80364577e-03,5.72339966,-4.91958003,-1,-0.9996520896176443
1.22917568e+02,2.59999408e+01,-4.06085236e-07,4.43995619,3.63591032,2.47083460,-2.34509855,4.78758507e-03,5.72519351,-4.91269843,-1,-0.9995278580872052
1.27636023e+02,2.59999389e+01,-4.01381857e-07,4.43734376,3.63615320,2.46904263,-2.34509856,4.77067380e-03,5.72704168,-4.90558920,-1,-0.9993984285900607
1.32548381e+02,2.59999370e+01,-3.96607922e-07,4.43465429,3.63639930,2.46720570,-2.34509856,4.75327406e-03,5.72894486,-4.89825087,-1,-0.9992636802400746
1.37642650e+02,2.59999350e+01,-3.91829406e-07,4.43192015,3.63665467,2.46532789,-2.34509856,4.73611839e-03,5.73089843,-4.89070012,-1,-0.9991239419835926
1.42926774e+02,2.59999329e+01,-3.87023033e-07,4.42913392,3.63691759,2.46340892,-2.34509856,4.71892189e-03,5.73290415,-4.88293294,-1,-0.998978995912862
1.48409110e+02,2.59999308e+01,-3.82148177e-07,4.42628259,3.63718482,2.46144881,-2.34509857,4.70113759e-03,5.73496348,-4.87494147,-1,-0.9988286127913408
1.54100082e+02,2.59999287e+01,-3.77204540e-07,4.42336861,3.63745722,2.45944702,-2.34509858,4.68274127e-03,5.73707813,-4.86671598,-1,-0.9986725066836798
1.60009081e+02,2.59999265e+01,-3.72251580e-07,4.42040119,3.63773833,2.45740109,-2.34509860,4.66449814e-03,5.73925235,-4.85824150,-1,-0.9985104199902182
1.66143490e+02,2.59999242e+01,-3.67298690e-07,4.41736847,3.63802481,2.45531177,-2.34509861,4.64643438e-03,5.74148708,-4.84951337,-1,-0.9983421501917039
1.72513084e+02,2.59999219e+01,-3.62270400e-07,4.41427599,3.63831445,2.45318626,-2.34509861,4.62745364e-03,5.74377498,-4.84055472,-1,-0.9981674291551709
1.79127402e+02,2.59999196e+01,-3.57225641e-07,4.41114727,3.63861539,2.45102001,-2.34509862,4.60836668e-03,5.74612346,-4.83133881,-1,-0.9979859952212468
1.85994286e+02,2.59999172e+01,-3.52210564e-07,4.40796076,3.63892156,2.44881441,-2.34509862,4.58971403e-03,5.74853295,-4.82186189,-1,-0.9977976332800882
1.93123137e+02,2.59999147e+01,-3.47161250e-07,4.40470918,3.63923064,2.44657046,-2.34509862,4.57061215e-03,5.75100441,-4.81212030,-1,-0.9976020854577293
2.00523061e+02,2.59999121e+01,-3.42088384e-07,4.40141419,3.63954755,2.44428914,-2.34509862,4.55116572e-03,5.75353878,-4.80210897,-1,-0.9973991019721969
2.08203162e+02,2.59999096e+01,-3.37013910e-07,4.39807714,3.63987208,2.44197155,-2.34509862,4.53161142e-03,5.75613770,-4.79182326,-1,-0.9971884330963787
2.16172534e+02,2.59999069e+01,-3.31948401e-07,4.39468974,3.64020330,2.43961542,-2.34509863,4.51208199e-03,5.75880669,-4.78123771,-1,-0.996969829377467
2.24440163e+02,2.59999042e+01,-3.26881555e-07,4.39126033,3.64054175,2.43722381,-2.34509863,4.49242370e-03,5.76154490,-4.77035618,-1,-0.9967430443251465
2.33016856e+02,2.59999014e+01,-3.21849030e-07,4.38779279,3.64088633,2.43480088,-2.34509863,4.47297941e-03,5.76435073,-4.75918579,-1,-0.996507781498193
2.41953844e+02,2.59998986e+01,-3.16841986e-07,4.38428495,3.64123393,2.43235176,-2.34509863,4.45343879e-03,5.76722512,-4.74772215,-1,-0.9962626356055594
2.51223290e+02,2.59998957e+01,-3.11878579e-07,4.38074889,3.64158792,2.42987576,-2.34509863,4.43413290e-03,5.77016957,-4.73595861,-1,-0.9960083702295861
2.60834882e+02,2.59998928e+01,-3.06937889e-07,4.37718816,3.64194969,2.42737186,-2.34509863,4.41482670e-03,5.77318895,-4.72387291,-1,-0.995744719623759
2.70799910e+02,2.59998897e+01,-3.02012104e-07,4.37360786,3.64231713,2.42484682,-2.34509863,4.39523455e-03,5.77627851,-4.71148548,-1,-0.995471374097931
2.81146393e+02,2.59998867e+01,-2.97154082e-07,4.37000750,3.64268855,2.42230380,-2.34509863,4.37606434e-03,5.77942852,-4.69881252,-1,-0.9951875650774138
2.91916412e+02,2.59998835e+01,-2.92348620e-07,4.36638906,3.64306437,2.41974294,-2.34509863,4.35695314e-03,5.78267550,-4.68575451,-1,-0.9948921382600749
3.03075913e+02,2.59998803e+01,-2.87611870e-07,4.36276605,3.64344720,2.41716578,-2.34509863,4.33828235e-03,5.78600588,-4.67235488,-1,-0.9945860277635642
3.14636139e+02,2.59998770e+01,-2.82899401e-07,4.35915071,3.64383888,2.41457476,-2.34509864,4.31944217e-03,5.78942085,-4.65860563,-1,-0.9942689251869673
3.26676625e+02,2.59998737e+01,-2.78308070e-07,4.35554786,3.64423609,2.41197891,-2.34509864,4.30141620e-03,5.79292569,-4.64447848,-1,-0.9939386488468611
3.39163024e+02,2.59998702e+01,-2.73800500e-07,4.35195910,3.64463383,2.40938905,-2.34509864,4.28368727e-03,5.79650403,-4.63003741,-1,-0.9935961408980272
3.52092089e+02,2.59998667e+01,-2.69412938e-07,4.34839793,3.64504010,2.40679591,-2.34509864,4.26705996e-03,5.80017687,-4.61521900,-1,-0.9932414904072419
3.65562147e+02,2.59998632e+01,-2.65094336e-07,4.34488657,3.64545086,2.40421873,-2.34509865,4.25026656e-03,5.80394068,-4.60001766,-1,-0.9928720002174557
3.79519593e+02,2.59998595e+01,-2.60855737e-07,4.34141244,3.64586392,2.40165554,-2.34509865,4.23362752e-03,5.80779665,-4.58444723,-1,-0.9924891407396814
3.93992062e+02,2.59998558e+01,-2.56789345e-07,4.33799238,3.64628041,2.39911252,-2.34509865,4.21861139e-03,5.81175084,-4.56849342,-1,-0.992092153932536
4.09056007e+02,2.59998520e+01,-2.52863987e-07,4.33465309,3.64670188,2.39659993,-2.34509866,4.20442675e-03,5.81581638,-4.55210473,-1,-0.9916789426533434
4.24646611e+02,2.59998481e+01,-2.49044720e-07,4.33141155,3.64713162,2.39411969,-2.34509866,4.19076432e-03,5.81998131,-4.53533452,-1,-0.9912512848636859
4.40865935e+02,2.59998441e+01,-2.45382896e-07,4.32826474,3.64756146,2.39168660,-2.34509866,4.17813952e-03,5.82426498,-4.51811385,-1,-0.9908063809810921
4.57688401e+02,2.59998400e+01,-2.41865639e-07,4.32523763,3.64799487,2.38930623,-2.34509867,4.16626015e-03,5.82866300,-4.50046633,-1,-0.9903449326224428
4.75131515e+02,2.59998358e+01,-2.38549620e-07,4.32235984,3.64843463,2.38698780,-2.34509867,4.15617247e-03,5.83317921,-4.48238250,-1,-0.989866459589712
4.93281645e+02,2.59998316e+01,-2.35424112e-07,4.31963729,3.64887252,2.38475075,-2.34509868,4.14730042e-03,5.83783060,-4.46380560,-1,-0.9893685927669899
5.12062147e+02,2.59998272e+01,-2.32475847e-07,4.31708557,3.64931530,2.38258935,-2.34509868,4.13974032e-03,5.84261320,-4.44475480,-1,-0.9888534345361746
5.31617721e+02,2.59998227e+01,-2.29756018e-07,4.31480003,3.64976604,2.38054508,-2.34509868,4.13371693e-03,5.84753772,-4.42520880,-1,-0.9883170157064535
5.51883932e+02,2.59998181e+01,-2.27291152e-07,4.31273482,3.65021421,2.37861615,-2.34509869,4.12986193e-03,5.85260082,-4.40518080,-1,-0.987761103760964
5.72900015e+02,2.59998133e+01,-2.25083743e-07,4.31094650,3.65066440,2.37682160,-2.34509869,4.12799830e-03,5.85781427,-4.38464023,-1,-0.9871846224647267
5.94770455e+02,2.59998085e+01,-2.23161614e-07,4.30949678,3.65111430,2.37519693,-2.34509870,4.12809598e-03,5.86320228,-4.36352229,-1,-0.9865847057437812
6.17410157e+02,2.59998034e+01,-2.21542526e-07,4.30839782,3.65156743,2.37374120,-2.34509870,4.13073234e-03,5.86875136,-4.34188257,-1,-0.985963687795033
6.40922738e+02,2.59997983e+01,-2.20277235e-07,4.30772514,3.65202099,2.37249775,-2.34509870,4.13611219e-03,5.87448670,-4.31965359,-1,-0.98531872635418
6.65356443e+02,2.59997929e+01,-2.19416093e-07,4.30754516,3.65247369,2.37150235,-2.34509871,4.14469931e-03,5.88042490,-4.29680287,-1,-0.9846484980375961
6.90652487e+02,2.59997874e+01,-2.18952560e-07,4.30788185,3.65292681,2.37076445,-2.34509871,4.15627698e-03,5.88655730,-4.27336609,-1,-0.9839546153461929
7.16871142e+02,2.59997816e+01,-2.18985134e-07,4.30882049,3.65337810,2.37033119,-2.34509871,4.17193206e-03,5.89290281,-4.24929993,-1,-0.9832354249899311
7.44142783e+02,2.59997756e+01,-2.19633634e-07,4.31053841,3.65382954,2.37028729,-2.34509871,4.19247959e-03,5.89949969,-4.22450932,-1,-0.9824873507196593
7.72350931e+02,2.59997694e+01,-2.20933927e-07,4.31302755,3.65427927,2.37063238,-2.34509871,4.21853653e-03,5.90632992,-4.19906764,-1,-0.9817135876105446
8.01507111e+02,2.59997629e+01,-2.22985747e-07,4.31637768,3.65472541,2.37141518,-2.34509872,4.25099822e-03,5.91340424,-4.17295443,-1,-0.9809138195262767
8.31800965e+02,2.59997561e+01,-2.26136041e-07,4.32090919,3.65516709,2.37279757,-2.34509872,4.29310333e-03,5.92078230,-4.14602817,-1,-0.9800828444952996
8.63015412e+02,2.59997489e+01,-2.30382722e-07,4.32653651,3.65560480,2.37473580,-2.34509871,4.34515986e-03,5.92842032,-4.11842922,-1,-0.9792266171541777
8.95296867e+02,2.59997413e+01,-2.36225365e-07,4.33362820,3.65603581,2.37741963,-2.34509871,4.41194002e-03,5.93637779,-4.09003789,-1,-0.9783411212688206
9.28511606e+02,2.59997333e+01,-2.43802251e-07,4.34222697,3.65645837,2.38087390,-2.34509871,4.49409963e-03,5.94463240,-4.06093742,-1,-0.9774300249530655
9.62641566e+02,2.59997247e+01,-2.53513374e-07,4.35258019,3.65686983,2.38522759,-2.34509870,4.59421918e-03,5.95320217,-4.03111865,-1,-0.9764938236837174
9.97583628e+02,2.59997156e+01,-2.65759945e-07,4.36488644,3.65727753,2.39056531,-2.34509870,4.71485827e-03,5.96208363,-4.00063564,-1,-0.9755353460646976
1.03321693e+03,2.59997057e+01,-2.81040856e-07,4.37929063,3.65768006,2.39696235,-2.34509869,4.85893817e-03,5.97127231,-3.96955123,-1,-0.9745579073989781
1.06940465e+03,2.59996951e+01,-2.99896462e-07,4.39586885,3.65806876,2.40447406,-2.34509868,5.02864166e-03,5.98076145,-3.93794560,-1,-0.9735652607800305
1.10599324e+03,2.59996836e+01,-3.23065856e-07,4.41469696,3.65844211,2.41314141,-2.34509867,5.22736681e-03,5.99053932,-3.90589532,-1,-0.9725616181035769
1.14280497e+03,2.59996710e+01,-3.51171831e-07,4.43573875,3.65881345,2.42291962,-2.34509866,5.45711442e-03,6.00057880,-3.87350667,-1,-0.9715518545892656
1.17969272e+03,2.59996573e+01,-3.84929135e-07,4.45885205,3.65920016,2.43370286,-2.34509864,5.72140276e-03,6.01085258,-3.84085369,-1,-0.9705400058096775
1.21651177e+03,2.59996422e+01,-4.25363771e-07,4.48397418,3.65961966,2.44542491,-2.34509862,6.02425074e-03,6.02134766,-3.80801146,-1,-0.9695300415042346
1.24979139e+03,2.59996270e+01,-4.76319182e-07,4.51475706,3.66055517,2.45894534,-2.34509861,6.39948429e-03,6.03108700,-3.77801545,-1,-0.9686171654713467
1.28001527e+03,2.59996113e+01,-5.47911134e-07,4.54900235,3.66234567,2.47248700,-2.34509858,7.02644520e-03,6.04021948,-3.75036379,-1,-0.9677881098609498
1.31342294e+03,2.59995915e+01,-6.19796632e-07,4.58028934,3.66465267,2.48351648,-2.34509857,7.70861589e-03,6.05063064,-3.71931723,-1,-0.966871721354782
1.35009511e+03,2.59995672e+01,-6.88570942e-07,4.60830508,3.66736994,2.49208982,-2.34509856,8.43780753e-03,6.06236703,-3.68479480,-1,-0.9658657860386038
1.38832362e+03,2.59995393e+01,-7.59042936e-07,4.63469436,3.67056095,2.49890244,-2.34509855,9.29613403e-03,6.07487051,-3.64847054,-1,-0.9648171595653444
1.42726911e+03,2.59995080e+01,-8.31325605e-07,4.65999854,3.67438219,2.50391204,-2.34509854,1.03510966e-02,6.08784044,-3.61120363,-1,-0.9637488659847664
1.46643973e+03,2.59994738e+01,-9.04291241e-07,4.68430671,3.67891719,2.50699612,-2.34509853,1.16793782e-02,6.10108944,-3.57352009,-1,-0.9626743969796708
1.50560286e+03,2.59994367e+01,-9.76900318e-07,4.70765844,3.68410983,2.50828671,-2.34509853,1.33631649e-02,6.11452306,-3.53571081,-1,-0.961600133428889
1.54481063e+03,2.59993967e+01,-1.04912782e-06,4.73014486,3.68981485,2.50811988,-2.34509853,1.55037796e-02,6.12815526,-3.49771342,-1,-0.9605246453813697
1.58413850e+03,2.59993538e+01,-1.12086885e-06,4.75181711,3.69593495,2.50671580,-2.34509852,1.82391711e-02,6.14196067,-3.45957519,-1,-0.9594458629329063
1.62358113e+03,2.59993080e+01,-1.19138649e-06,4.77261123,3.70243575,2.50411126,-2.34509852,2.17531650e-02,6.15593117,-3.42129523,-1,-0.9583639325622751
1.66311408e+03,2.59992594e+01,-1.25934107e-06,4.79243502,3.70930608,2.50028249,-2.34509853,2.62718263e-02,6.16998603,-3.38309948,-1,-0.9572795246704676
1.70269121e+03,2.59992081e+01,-1.32301639e-06,4.81110628,3.71654855,2.49513318,-2.34509851,3.20896009e-02,6.18406521,-3.34506368,-1,-0.9561939048999448
1.74221695e+03,2.59991545e+01,-1.38057285e-06,4.82849784,3.72415966,2.48860675,-2.34509851,3.95951363e-02,6.19813558,-3.30728649,-1,-0.9551096947819159
1.78162174e+03,2.59990990e+01,-1.43019170e-06,4.84447725,3.73212989,2.48065600,-2.34509851,4.93583780e-02,6.21213711,-3.26989832,-1,-0.9540288023807412
1.82077442e+03,2.59990421e+01,-1.47057034e-06,4.85896725,3.74044310,2.47127458,-2.34509851,6.20592049e-02,6.22607018,-3.23286213,-1,-0.952954825478501
1.85964479e+03,2.59989843e+01,-1.50088732e-06,4.87195322,3.74906964,2.46051447,-2.34509851,7.84854581e-02,6.23983708,-3.19642046,-1,-0.9518885924757658
1.89832510e+03,2.59989258e+01,-1.51963758e-06,4.88324616,3.75798271,2.44833480,-2.34509851,9.96395778e-02,6.25334263,-3.16083728,-1,-0.9508275729105282
1.93675362e+03,2.59988672e+01,-1.52701872e-06,4.89293525,3.76714198,2.43486081,-2.34509852,1.27125413e-01,6.26663399,-3.12588296,-1,-0.9497734600664708
1.97509979e+03,2.59988087e+01,-1.52263818e-06,4.90093304,3.77650809,2.42012750,-2.34509852,1.63190083e-01,6.27965480,-3.09179484,-1,-0.9487216061226443
2.01329779e+03,2.59987508e+01,-1.50829706e-06,4.90749287,3.78604045,2.40434268,-2.34509852,2.10780321e-01,6.29250609,-3.05818016,-1,-0.9476738165534049
2.05152439e+03,2.59986936e+01,-1.48466300e-06,4.91263204,3.79570277,2.38758764,-2.34509853,2.73996162e-01,6.30515906,-3.02512704,-1,-0.9466252424723669
2.08999754e+03,2.59986371e+01,-1.45304477e-06,4.91643795,3.80545827,2.36997959,-2.34509858,3.58678971e-01,6.31758857,-2.99277094,-1,-0.9455699054058769
2.12879974e+03,2.59985816e+01,-1.41495717e-06,4.91908722,3.81527635,2.35166806,-2.34509862,4.74662217e-01,6.32991357,-2.96071392,-1,-0.9445055423391315
2.16819840e+03,2.59985267e+01,-1.37206401e-06,4.92068111,3.82512807,2.33276157,-2.34509854,6.35446650e-01,6.34209047,-2.92917603,-1,-0.9434248180868144
2.20832732e+03,2.59984727e+01,-1.32521115e-06,4.92134778,3.83499197,2.31336710,-2.34509851,8.59900798e-01,6.35419040,-2.89795753,-1,-0.9423240624503716
2.24942692e+03,2.59984194e+01,-1.27548856e-06,4.92113720,3.84484711,2.29355154,-2.34509851,1.17611511,6.36618839,-2.86719181,-1,-0.9411966805932086
2.29165745e+03,2.59983668e+01,-1.22388789e-06,4.92014722,3.85467744,2.27339589,-2.34509849,1.62414266,6.37810436,-2.83681432,-1,-0.9400382767805102
2.33517297e+03,2.59983148e+01,-1.17101833e-06,4.91844131,3.86447012,2.25295756,-2.34509848,2.24637666,6.38992435,-2.80682340,-1,-0.9388446250721477
2.38009969e+03,2.59982636e+01,-1.11767431e-06,4.91609621,3.87421525,2.23229476,-2.34509847,3.07325429,6.40162315,-2.77713780,-1,-0.9376122634669292
2.42669668e+03,2.59982129e+01,-1.06386171e-06,4.91301623,3.88389243,2.21140042,-2.34509847,4.10053746,6.41310122,-2.74782989,-1,-0.9363340855497619
2.47497649e+03,2.59981630e+01,-1.01069876e-06,4.90942956,3.89349887,2.19039419,-2.34509849,5.27769710,6.42438648,-2.71842906,-1,-0.9350097470680911
2.52522954e+03,2.59981138e+01,-9.58144187e-07,4.90521764,3.90301036,2.16926525,-2.34509851,6.47772567,6.43537999,-2.68891323,-1,-0.9336312816611989
2.57763545e+03,2.59980651e+01,-9.06546209e-07,4.90045242,3.91241092,2.14808153,-2.34509851,7.59294223,6.44612400,-2.65893896,-1,-0.9321937622658248
2.63231050e+03,2.59980172e+01,-8.56616769e-07,4.89527974,3.92169263,2.12693176,-2.34509852,8.57297141,6.45672325,-2.62823646,-1,-0.9306939992654676
2.68954547e+03,2.59979697e+01,-8.08407461e-07,4.88965958,3.93083332,2.10584031,-2.34509851,9.40426664,6.46726059,-2.59684406,-1,-0.9291240164244359
2.74937607e+03,2.59979230e+01,-7.62545262e-07,4.88380432,3.93983803,2.08490325,-2.34509854,1.00849271e+01,6.47789533,-2.56459846,-1,-0.9274828342002007
2.81213664e+03,2.59978767e+01,-7.18750466e-07,4.87762846,3.94868243,2.06412652,-2.34509855,1.06047039e+01,6.48865283,-2.53169084,-1,-0.9257612814852543
2.87770433e+03,2.59978312e+01,-6.77726166e-07,4.87146732,3.95739086,2.04362909,-2.34509856,1.09727779e+01,6.49964925,-2.49783960,-1,-0.9239627281143677
2.94659950e+03,2.59977861e+01,-6.39091239e-07,4.86512182,3.96592184,2.02339438,-2.34509856,1.12093698e+01,6.51080466,-2.46335660,-1,-0.922072900361685
3.01867874e+03,2.59977415e+01,-6.03312362e-07,4.85895359,3.97430479,2.00354437,-2.34509864,1.13499175e+01,6.52220021,-2.42796335,-1,-0.9200957320326965
3.09420680e+03,2.59976974e+01,-5.70364713e-07,4.85299398,3.98252734,1.98411946,-2.34509874,1.14197148e+01,6.53380495,-2.39177889,-1,-0.9180239609071692
3.17334393e+03,2.59976537e+01,-5.40287423e-07,4.84739614,3.99059115,1.96519293,-2.34509882,1.14365153e+01,6.54560704,-2.35485780,-1,-0.9158531912502881
3.25608810e+03,2.59976103e+01,-5.13291805e-07,4.84241527,3.99851519,1.94685440,-2.34509876,1.14177922e+01,6.55761509,-2.31718282,-1,-0.9135834787459326
3.34234445e+03,2.59975692e+01,-4.38091639e-07,4.83831548,4.00632581,1.92918327,-2.34509876,1.01822379e+01,6.56982817,-2.27877959,-1,-0.9112174254496693
3.43204087e+03,2.59975350e+01,-3.42771703e-07,4.83527811,4.01404211,1.91223198,-2.34509871,8.27885940,6.58221610,-2.23976663,-1,-0.9087570093735889
3.52495019e+03,2.59975080e+01,-2.56146874e-07,4.83350272,4.02169427,1.89603997,-2.34509884,6.39237798,6.59476336,-2.20022418,-1,-0.9062084619003933
3.62087658e+03,2.59974880e+01,-1.76278400e-07,4.83301961,4.02930102,1.88058492,-2.34509894,4.52145929,6.60743270,-2.16031700,-1,-0.9035771547414636
3.71947028e+03,2.59974751e+01,-1.01785995e-07,4.83390314,4.03689266,1.86584339,-2.34509890,2.66995213,6.62021274,-2.12011424,-1,-0.9008726819823474
3.82029822e+03,2.59974688e+01,-4.55321669e-08,4.83607813,4.04449899,1.85171824,-2.34509905,1.21703324,6.63310545,-2.07963402,-1,-0.8981069229420862
3.92332732e+03,2.59974640e+01,-4.71124818e-08,4.83932859,4.05212118,1.83809908,-2.34509930,1.28003598,6.64608126,-2.03900392,-1,-0.8952807850210399
4.02853669e+03,2.59974590e+01,-4.89759216e-08,4.84345595,4.05976322,1.82487868,-2.34509916,1.35060054,6.65912699,-1.99828986,-1,-0.8923948412419873
4.13578972e+03,2.59974536e+01,-5.11195228e-08,4.84830435,4.06743718,1.81195497,-2.34509903,1.42877033,6.67225513,-1.95747323,-1,-0.8894528388831381
4.24496916e+03,2.59974478e+01,-5.35245413e-08,4.85373607,4.07515227,1.79924065,-2.34509902,1.51388206,6.68547272,-1.91653086,-1,-0.8864579941685614
4.35618814e+03,2.59974417e+01,-5.61794738e-08,4.85959035,4.08290518,1.78666196,-2.34509909,1.60561187,6.69877457,-1.87549146,-1,-0.8834072038877758
4.46949321e+03,2.59974351e+01,-5.90801347e-08,4.86577900,4.09069808,1.77417049,-2.34509901,1.70445055,6.71215954,-1.83436026,-1,-0.8802991911518225
4.58489789e+03,2.59974281e+01,-6.22243224e-08,4.87222788,4.09853153,1.76172803,-2.34509906,1.81128555,6.72562705,-1.79313921,-1,-0.8771335851005787
4.70252424e+03,2.59974205e+01,-6.56083519e-08,4.87886941,4.10640150,1.74930885,-2.34509907,1.92708709,6.73916426,-1.75187487,-1,-0.8739070375693544
4.82221649e+03,2.59974124e+01,-6.92564063e-08,4.88569651,4.11431811,1.73688918,-2.34509917,2.05305553,6.75278787,-1.71049723,-1,-0.8706238214044034
4.94409327e+03,2.59974037e+01,-7.31686202e-08,4.89266185,4.12227736,1.72445336,-2.34509928,2.18950523,6.76648376,-1.66906340,-1,-0.8672806825275908
5.06816291e+03,2.59973943e+01,-7.73560784e-08,4.89973866,4.13027969,1.71198710,-2.34509926,2.33709072,6.78024617,-1.62758738,-1,-0.8638773924429977
5.19445439e+03,2.59973842e+01,-8.18293612e-08,4.90689920,4.13832559,1.69947557,-2.34509939,2.49690095,6.79406958,-1.58608450,-1,-0.860413156215242
5.32300592e+03,2.59973733e+01,-8.65993413e-08,4.91411463,4.14641581,1.68690284,-2.34509931,2.67047764,6.80795064,-1.54456130,-1,-0.8568869257255889
5.45384814e+03,2.59973616e+01,-9.16728525e-08,4.92135362,4.15455076,1.67425245,-2.34509948,2.85948945,6.82188154,-1.50303597,-1,-0.8532978605040555
