star_age,star_mass,star_mdot,log_L,log_Teff,log_R,log_surf_z,v_wind_Km_per_s,log_center_T,log_center_Rho,phase,x
1.03415320e+02,5.49994189e+01,-1.02762768e-05,5.43271402,3.82473170,2.58957075,-2.34509851,2.44392996,6.23937117,-3.67233734,-1,-1.0
1.06574460e+02,5.49993841e+01,-1.04986847e-05,5.43851924,3.82511248,2.59171182,-2.34509851,2.50979095,6.24154088,-3.66587180,-1,-0.9997717231325507
1.09733600e+02,5.49993492e+01,-1.07210926e-05,5.44432446,3.82549325,2.59385288,-2.34509851,2.57565193,6.24371059,-3.65940626,-1,-0.9995434462651014
1.12892740e+02,5.49993144e+01,-1.09435006e-05,5.45012968,3.82587402,2.59599395,-2.34509851,2.64151292,6.24588030,-3.65294072,-1,-0.9993151693976521
1.16271242e+02,5.49992753e+01,-1.11734354e-05,5.45586609,3.82630521,2.59799977,-2.34509851,2.71666641,6.24822239,-3.64598837,-1,-0.9990710416118523
1.19767048e+02,5.49992338e+01,-1.14073952e-05,5.46156569,3.82676337,2.59993326,-2.34509851,2.79678909,6.25065665,-3.63877569,-1,-0.9988184375351447
1.23262853e+02,5.49991923e+01,-1.16413550e-05,5.46726530,3.82722152,2.60186676,-2.34509851,2.87691176,6.25309092,-3.63156301,-1,-0.9985658335306961
1.26766869e+02,5.49991506e+01,-1.18755612e-05,5.47296282,3.82768209,2.60379438,-2.34509850,2.95751324,6.25553154,-3.62433245,-1,-0.9983126362061164
1.30664669e+02,5.49991006e+01,-1.21215805e-05,5.47855981,3.82825863,2.60543980,-2.34509850,3.06107940,6.25827705,-3.61624464,-1,-0.9980309843724073
1.34562468e+02,5.49990506e+01,-1.23675998e-05,5.48415680,3.82883517,2.60708522,-2.34509850,3.16464555,6.26102256,-3.60815682,-1,-0.9977493326109573
1.38460268e+02,5.49990005e+01,-1.26136192e-05,5.48975379,3.82941170,2.60873064,-2.34509850,3.26821171,6.26376807,-3.60006901,-1,-0.9974676807772482
1.42405403e+02,5.49989494e+01,-1.28689470e-05,5.49534689,3.83000289,2.61034481,-2.34509850,3.37752409,6.26654931,-3.59188054,-1,-0.9971826085552306
1.46724192e+02,5.49988893e+01,-1.31977537e-05,5.50090929,3.83070975,2.61171229,-2.34509850,3.53219570,6.26961251,-3.58289754,-1,-0.9968705364013867
1.51042980e+02,5.49988293e+01,-1.35265604e-05,5.50647170,3.83141661,2.61307978,-2.34509850,3.68686730,6.27267572,-3.57391455,-1,-0.9965584643198019
1.55361769e+02,5.49987692e+01,-1.38553670e-05,5.51203410,3.83212347,2.61444726,-2.34509850,3.84153891,6.27573893,-3.56493155,-1,-0.9962463921659579
1.60017967e+02,5.49987007e+01,-1.41715820e-05,5.51755693,3.83297543,2.61550476,-2.34509850,4.03069065,6.27905275,-3.55524595,-1,-0.9959099391142845
1.64735966e+02,5.49986307e+01,-1.44854907e-05,5.52307251,3.83385396,2.61650548,-2.34509850,4.22615789,6.28241247,-3.54543166,-1,-0.9955690203729975
1.69453964e+02,5.49985607e+01,-1.47993993e-05,5.52858810,3.83473250,2.61750620,-2.34509849,4.42162512,6.28577219,-3.53561737,-1,-0.9952281017039699
1.74512043e+02,5.49984818e+01,-1.51146793e-05,5.53404027,3.83578473,2.61812783,-2.34509849,4.67221782,6.28937841,-3.52511188,-1,-0.9948626090605824
1.79623366e+02,5.49984015e+01,-1.54301740e-05,5.53948251,3.83686415,2.61869010,-2.34509849,4.93144099,6.29302323,-3.51449817,-1,-0.994493269049389
1.84778054e+02,5.49983200e+01,-1.57452970e-05,5.54491334,3.83796943,2.61919496,-2.34509849,5.20054422,6.29669855,-3.50379898,-1,-0.9941207955188336
1.90275293e+02,5.49982293e+01,-1.60574846e-05,5.55025402,3.83927895,2.61924626,-2.34509849,5.54768959,6.30061493,-3.49242463,-1,-0.9937235695337426
1.95772531e+02,5.49981385e+01,-1.63696722e-05,5.55559469,3.84058847,2.61929756,-2.34509849,5.89483495,6.30453130,-3.48105028,-1,-0.9933263436209109
2.01478828e+02,5.49980420e+01,-1.66757069e-05,5.56085936,3.84204203,2.61902277,-2.34509849,6.30917872,6.30858973,-3.46927778,-1,-0.9929140112760654
2.07351906e+02,5.49979408e+01,-1.69768328e-05,5.56606339,3.84361050,2.61848785,-2.34509849,6.77713112,6.31276148,-3.45718764,-1,-0.9924896274728386
2.13290898e+02,5.49978378e+01,-1.72672645e-05,5.57122173,3.84523237,2.61782328,-2.34509849,7.27314234,6.31697548,-3.44497927,-1,-0.9920604807779893
2.19562661e+02,5.49977258e+01,-1.75037059e-05,5.57614935,3.84712382,2.61650419,-2.34509849,7.91080880,6.32140276,-3.43217398,-1,-0.9916072883233894
2.25834424e+02,5.49976137e+01,-1.77401473e-05,5.58107697,3.84901526,2.61518511,-2.34509849,8.54847526,6.32583004,-3.41936868,-1,-0.9911540958687896
2.32322950e+02,5.49974958e+01,-1.79626877e-05,5.58582341,3.85110565,2.61337755,-2.34509849,9.34408590,6.33038530,-3.40620476,-1,-0.9906852402974495
2.39047608e+02,5.49973715e+01,-1.81700848e-05,5.59037249,3.85341277,2.61103787,-2.34509849,1.03117550e+01,6.33507998,-3.39265016,-1,-0.9901993220213022
2.45772266e+02,5.49972472e+01,-1.83774819e-05,5.59492157,3.85571988,2.60869818,-2.34509848,1.12794241e+01,6.33977466,-3.37909556,-1,-0.9897134037451549
2.52695520e+02,5.49971174e+01,-1.85948629e-05,5.59935160,3.85822826,2.60589644,-2.34509848,1.24926520e+01,6.34458085,-3.36522864,-1,-0.9892131350847992
2.59841208e+02,5.49969814e+01,-1.88234261e-05,5.60364829,3.86096206,2.60257718,-2.34509848,1.39809126e+01,6.34951192,-3.35101191,-1,-0.9886967935258908
2.67019267e+02,5.49968445e+01,-1.90449588e-05,5.60790891,3.86373242,2.59916677,-2.34509848,1.55217127e+01,6.35445923,-3.33674999,-1,-0.9881781128650506
2.74501165e+02,5.49966998e+01,-1.92005028e-05,5.61183102,3.86684599,2.59490069,-2.34509848,1.75556423e+01,6.35955896,-3.32206399,-1,-0.9876374770470701
2.81999956e+02,5.49965546e+01,-1.93520467e-05,5.61572785,3.86997886,2.59058336,-2.34509848,1.96218459e+01,6.36466623,-3.30735717,-1,-0.9870956205547534
2.89766818e+02,5.49964032e+01,-1.94401122e-05,5.61922348,3.87341807,2.58545276,-2.34509848,2.22001998e+01,6.36989301,-3.29232001,-1,-0.9865343934716639
2.97599508e+02,5.49962503e+01,-1.95094508e-05,5.62260416,3.87694181,2.58009561,-2.34509848,2.49117033e+01,6.37514473,-3.27721636,-1,-0.9859684097112413
3.05601520e+02,5.49960940e+01,-1.95306187e-05,5.62568916,3.88068302,2.57415570,-2.34509848,2.79657017e+01,6.38046057,-3.26194166,-1,-0.98539019088186
3.13740055e+02,5.49959353e+01,-1.95091751e-05,5.62849474,3.88461664,2.56769123,-2.34509848,3.12898764e+01,6.38581709,-3.24656032,-1,-0.9848021070123808
3.21981133e+02,5.49957751e+01,-1.94546739e-05,5.63107774,3.88869917,2.56081768,-2.34509848,3.47985889e+01,6.39120077,-3.23111010,-1,-0.9842066134697567
3.30346803e+02,5.49956132e+01,-1.93581976e-05,5.63336845,3.89297012,2.55342114,-2.34509848,3.84998911e+01,6.39661159,-3.21559547,-1,-0.9836021170113172
3.38846764e+02,5.49954501e+01,-1.92142604e-05,5.63530754,3.89745254,2.54542584,-2.34509848,4.22901312e+01,6.40204083,-3.20004359,-1,-0.9829879167952705
3.47446826e+02,5.49952866e+01,-1.90347678e-05,5.63696856,3.90209163,2.53697818,-2.34509848,4.60465664e+01,6.40747670,-3.18449011,-1,-0.9823664833629979
3.56150839e+02,5.49951229e+01,-1.88194857e-05,5.63833552,3.90688686,2.52807118,-2.34509848,4.97038686e+01,6.41291496,-3.16894763,-1,-0.9817375385166542
3.64962077e+02,5.49949594e+01,-1.85698058e-05,5.63940035,3.91183039,2.51871655,-2.34509848,5.32021399e+01,6.41835148,-3.15342860,-1,-0.9811008456796826
3.73885016e+02,5.49947962e+01,-1.82882933e-05,5.64016162,3.91690954,2.50893887,-2.34509848,5.64987164e+01,6.42378303,-3.13794322,-1,-0.9804560814199913
3.82925692e+02,5.49946337e+01,-1.79782609e-05,5.64062366,3.92210934,2.49877030,-2.34509849,5.95694390e+01,6.42920773,-3.12249716,-1,-0.9798028095811667
3.92091696e+02,5.49944719e+01,-1.76434042e-05,5.64079529,3.92741403,2.48824673,-2.34509849,6.24040681e+01,6.43462513,-3.10709285,-1,-0.9791404816437699
4.01392141e+02,5.49943110e+01,-1.72874949e-05,5.64068868,3.93280795,2.47740559,-2.34509849,6.49901581e+01,6.44003514,-3.09172976,-1,-0.9784684391098889
4.10837611e+02,5.49941511e+01,-1.69142275e-05,5.64031665,3.93827587,2.46628374,-2.34509849,6.73058455e+01,6.44543807,-3.07640488,-1,-0.9777859171883576
4.20439690e+02,5.49939922e+01,-1.65270456e-05,5.63969394,3.94380351,2.45491709,-2.34509849,6.93314187e+01,6.45083416,-3.06111114,-1,-0.9770920788288291
4.30221432e+02,5.49938342e+01,-1.61734952e-05,5.63881636,3.94938000,2.44332532,-2.34509849,7.12323894e+01,6.45621889,-3.04585687,-1,-0.9763852581681565
4.40199638e+02,5.49936767e+01,-1.58331867e-05,5.63771520,3.95498734,2.43156007,-2.34509849,7.29149549e+01,6.46159270,-3.03063100,-1,-0.9756642411798483
4.50353793e+02,5.49935201e+01,-1.54323317e-05,5.63645236,3.96061322,2.41967690,-2.34509850,7.40727382e+01,6.46696418,-3.01540136,-1,-0.9749305102609922
4.60731828e+02,5.49933648e+01,-1.49540699e-05,5.63500383,3.96625446,2.40767014,-2.34509850,7.45720240e+01,6.47233888,-3.00013893,-1,-0.9741806019568083
4.71343507e+02,5.49932106e+01,-1.45132965e-05,5.63335776,3.97189933,2.39555737,-2.34509850,7.49879884e+01,6.47771421,-2.98483688,-1,-0.9734138107286584
4.82214947e+02,5.49930571e+01,-1.41283965e-05,5.63153342,3.97753595,2.38337197,-2.34509850,7.54592932e+01,6.48308966,-2.96947431,-1,-0.9726282493835255
4.93358875e+02,5.49929039e+01,-1.37809419e-05,5.62956462,3.98315365,2.37115216,-2.34509851,7.59350026e+01,6.48845941,-2.95404721,-1,-0.9718229982788196
5.04750397e+02,5.49927514e+01,-1.33938076e-05,5.62747962,3.98875168,2.35891359,-2.34509852,7.60334457e+01,6.49382768,-2.93854489,-1,-0.9709998562345796
5.16446733e+02,5.49926001e+01,-1.29292229e-05,5.62525570,3.99432504,2.34665492,-2.34509852,7.55204202e+01,6.49920848,-2.92290259,-1,-0.9701546885804984
5.28455352e+02,5.49924496e+01,-1.25115328e-05,5.62289566,3.99986550,2.33439397,-2.34509852,7.51251527e+01,6.50460233,-2.90710507,-1,-0.9692869556127564
5.40802213e+02,5.49923039e+01,-1.18206264e-05,5.62042845,4.00536480,2.32216177,-2.34509852,7.28783751e+01,6.51001093,-2.89113314,-1,-0.9683947815552875
5.53494150e+02,5.49921713e+01,-1.06051182e-05,5.61788646,4.01081908,2.30998223,-2.34509854,6.70693128e+01,6.51543727,-2.87497908,-1,-0.9674776725888523
5.66499929e+02,5.49920544e+01,-9.00484415e-06,5.61527811,4.01623321,2.29784980,-2.34509854,5.84189827e+01,6.52088897,-2.85864354,-1,-0.9665378856566942
5.79885331e+02,5.49919583e+01,-7.16009597e-06,5.61257760,4.02160134,2.28576328,-2.34509854,4.76096585e+01,6.52638595,-2.84206554,-1,-0.9655706674776613
5.93665283e+02,5.49918809e+01,-5.65718010e-06,5.60980816,4.02692003,2.27374116,-2.34509855,3.85062974e+01,6.53193103,-2.82524791,-1,-0.9645749394389667
6.07820699e+02,5.49918191e+01,-4.44643518e-06,5.60700629,4.03219186,2.26179658,-2.34509857,3.09593131e+01,6.53752214,-2.80821942,-1,-0.963552080679329
6.22334294e+02,5.49917718e+01,-3.28388620e-06,5.60417809,4.03741914,2.24992792,-2.34509858,2.34080113e+01,6.54316119,-2.79099147,-1,-0.9625033401986829
6.37300465e+02,5.49917460e+01,-1.79975733e-06,5.60129170,4.04260034,2.23812232,-2.34509857,1.31001776e+01,6.54887675,-2.77348880,-1,-0.961421896947168
6.52669426e+02,5.49917324e+01,-8.57346955e-07,5.59836741,4.04773780,2.22638526,-2.34509858,6.38144665,6.55466018,-2.75575135,-1,-0.960311348420344
6.68515700e+02,5.49917195e+01,-8.19753463e-07,5.59544350,4.05281977,2.21475936,-2.34509859,6.24324959,6.56051794,-2.73776093,-1,-0.9591663096473034
6.84846505e+02,5.49917061e+01,-8.18086358e-07,5.59253251,4.05784519,2.20325302,-2.34509860,6.37056833,6.56645114,-2.71952121,-1,-0.9579862590612813
7.01565763e+02,5.49916925e+01,-8.16030764e-07,5.58961772,4.06283154,2.19182294,-2.34509861,6.49718133,6.57245052,-2.70106747,-1,-0.9567781391798209
7.18767608e+02,5.49916785e+01,-8.13678113e-07,5.58670556,4.06777075,2.18048842,-2.34509860,6.62349877,6.57853345,-2.68234616,-1,-0.9555351479572259
7.36497203e+02,5.49916641e+01,-8.11561192e-07,5.58383626,4.07265492,2.16928544,-2.34509860,6.75219997,6.58470212,-2.66335121,-1,-0.954254021952128
7.54721814e+02,5.49916493e+01,-8.09737691e-07,5.58103606,4.07748595,2.15822328,-2.34509862,6.88262285,6.59094587,-2.64411602,-1,-0.9529371264965413
7.73433229e+02,5.49916342e+01,-8.08014088e-07,5.57831015,4.08226608,2.14730006,-2.34509864,7.01282094,6.59726246,-2.62464748,-1,-0.9515850549828558
7.92753241e+02,5.49916186e+01,-8.06029392e-07,5.57565175,4.08699728,2.13650847,-2.34509863,7.14055633,6.60368030,-2.60485962,-1,-0.9501890067487025
8.12601923e+02,5.49916027e+01,-8.04343085e-07,5.57308169,4.09168469,2.12584862,-2.34509863,7.27067554,6.61018279,-2.58480270,-1,-0.9487547572536001
8.33072263e+02,5.49915862e+01,-8.03192121e-07,5.57066386,4.09631675,2.11537558,-2.34509864,7.40500026,6.61677733,-2.56445634,-1,-0.9472755872608736
8.54130477e+02,5.49915693e+01,-8.02461372e-07,5.56841139,4.10089880,2.10508525,-2.34509866,7.54281049,6.62345597,-2.54384599,-1,-0.9457539379746762
8.75664380e+02,5.49915521e+01,-8.02075605e-07,5.56629212,4.10544424,2.09493472,-2.34509869,7.68377421,6.63020400,-2.52301812,-1,-0.9441979157911714
8.97854475e+02,5.49915343e+01,-8.02348547e-07,5.56433804,4.10995224,2.08494169,-2.34509868,7.83156552,6.63705580,-2.50186703,-1,-0.9425944777115033
9.20726729e+02,5.49915159e+01,-8.03328599e-07,5.56259771,4.11442173,2.07513254,-2.34509869,7.98575429,6.64401231,-2.48039663,-1,-0.9409417473815321
9.44296359e+02,5.49914969e+01,-8.04780328e-07,5.56113351,4.11884809,2.06554774,-2.34509873,8.14257053,6.65106599,-2.45862844,-1,-0.9392386252333085
9.68509450e+02,5.49914774e+01,-8.06927392e-07,5.55994030,4.12324005,2.05616720,-2.34509878,8.30411319,6.65820851,-2.43659119,-1,-0.9374890071205483
9.93212005e+02,5.49914573e+01,-8.09881384e-07,5.55894954,4.12760989,2.04693214,-2.34509883,8.47238589,6.66542050,-2.41434451,-1,-0.9357040207402694
1.01866776e+03,5.49914366e+01,-8.15159716e-07,5.55824473,4.13196031,2.03787890,-2.34509883,8.66359997,6.67274811,-2.39175100,-1,-0.9338646087452462
1.04485067e+03,5.49914151e+01,-8.21368300e-07,5.55785412,4.13629343,2.02901735,-2.34509885,8.86361118,6.68018407,-2.36884039,-1,-0.9319726531258348
1.07176369e+03,5.49913927e+01,-8.27661470e-07,5.55783551,4.14060884,2.02037723,-2.34509892,9.06262060,6.68772391,-2.34562861,-1,-0.9300279403561568
1.09931667e+03,5.49913697e+01,-8.34744022e-07,5.55814653,4.14491260,2.01192522,-2.34509901,9.26901882,6.69535131,-2.32216725,-1,-0.9280369846013331
1.12742673e+03,5.49913460e+01,-8.42823012e-07,5.55874380,4.14920774,2.00363356,-2.34509910,9.48542430,6.70305377,-2.29849358,-1,-0.9260057747022428
1.15642662e+03,5.49913210e+01,-8.56234416e-07,5.55973002,4.15350857,1.99552501,-2.34509913,9.76404754,6.71088601,-2.27444825,-1,-0.923910266416578
1.18605619e+03,5.49912952e+01,-8.70771461e-07,5.56101250,4.15781591,1.98755158,-2.34509901,1.00573912e+01,6.71880921,-2.25014609,-1,-0.9217692579701432
1.21636908e+03,5.49912683e+01,-8.86433171e-07,5.56262619,4.16213374,1.97972277,-2.34509907,1.03658010e+01,6.72683286,-2.22556380,-1,-0.9195788733804967
1.24740762e+03,5.49912402e+01,-9.02570418e-07,5.56460306,4.16646469,1.97204931,-2.34509934,1.06813728e+01,6.73495871,-2.20070198,-1,-0.9173360539165286
1.27904869e+03,5.49912111e+01,-9.18139339e-07,5.56688656,4.17080621,1.96450802,-2.34509954,1.09911984e+01,6.74316236,-2.17563148,-1,-0.9150496961285406
1.31167565e+03,5.49911803e+01,-9.35946647e-07,5.56962637,4.17517275,1.95714484,-2.34509980,1.13299802e+01,6.75148674,-2.15024339,-1,-0.9126920987371004
1.34480085e+03,5.49911484e+01,-9.59150066e-07,5.57254571,4.17956081,1.94982839,-2.34509994,1.17378292e+01,6.75988227,-2.12466298,-1,-0.9102984989315736
1.37861177e+03,5.49911150e+01,-9.87780203e-07,5.57571288,4.18397954,1.94257450,-2.34509999,1.22167686e+01,6.76837556,-2.09881983,-1,-0.9078553495608019
1.41313652e+03,5.49910799e+01,-1.01692568e-06,5.57913842,4.18843300,1.93538037,-2.34510011,1.27082299e+01,6.77696957,-2.07271018,-1,-0.9053606194192221
1.44842613e+03,5.49910428e+01,-1.04753704e-06,5.58281949,4.19292416,1.92823858,-2.34510015,1.32246271e+01,6.78566321,-2.04634215,-1,-0.9028106211208535
1.48446116e+03,5.49910038e+01,-1.08005714e-06,5.58672564,4.19745528,1.92112942,-2.34509927,1.37722749e+01,6.79445043,-2.01973352,-1,-0.9002067593841651
1.52127796e+03,5.49909627e+01,-1.10980532e-06,5.59084311,4.20202851,1.91404168,-2.34510004,1.42915635e+01,6.80331958,-1.99292889,-1,-0.8975464075879458
1.55879263e+03,5.49909196e+01,-1.14053686e-06,5.59510813,4.20664851,1.90693421,-2.34510063,1.48316723e+01,6.81226406,-1.96594167,-1,-0.8948356282774389
1.59680811e+03,5.49908749e+01,-1.17399227e-06,5.59946524,4.21130459,1.89980059,-2.34510083,1.54140609e+01,6.82126367,-1.93881942,-1,-0.8920886608467514
1.63567943e+03,5.49908271e+01,-1.22263087e-06,5.60392302,4.21603084,1.89257698,-2.34510054,1.62122629e+01,6.83036215,-1.91144892,-1,-0.8892798511190344
1.67526638e+03,5.49907766e+01,-1.27032188e-06,5.60845646,4.22081777,1.88526985,-2.34510038,1.70155518e+01,6.83953465,-1.88389874,-1,-0.8864193305539841
1.71553527e+03,5.49907234e+01,-1.31838108e-06,5.61304611,4.22566380,1.87787262,-2.34510030,1.78423794e+01,6.84877236,-1.85619425,-1,-0.8835095335633915
1.75650259e+03,5.49906674e+01,-1.36762812e-06,5.61767195,4.23057126,1.87037060,-2.34510025,1.87063992e+01,6.85807195,-1.82834807,-1,-0.8805492685933699
1.79817382e+03,5.49906083e+01,-1.41852271e-06,5.62230956,4.23554165,1.86274863,-2.34510023,1.96166665e+01,6.86742870,-1.80037211,-1,-0.8775381396636106
1.84062446e+03,5.49905458e+01,-1.46531582e-06,5.62692635,4.24057482,1.85499069,-2.34510042,2.04970286e+01,6.87683980,-1.77228107,-1,-0.8744706912059865
1.88381684e+03,5.49904802e+01,-1.51083240e-06,5.63148552,4.24566583,1.84708825,-2.34510000,2.13873076e+01,6.88629474,-1.74410317,-1,-0.8713496452238266
1.92759231e+03,5.49904118e+01,-1.55995405e-06,5.63598594,4.25080533,1.83905947,-2.34509915,2.23526514e+01,6.89578268,-1.71585986,-1,-0.8681864656361156
1.97213404e+03,5.49903392e+01,-1.62882996e-06,5.64039990,4.25602443,1.83082825,-2.34510054,2.36404710e+01,6.90531821,-1.68751456,-1,-0.8649679167287632
2.01741985e+03,5.49902624e+01,-1.69398203e-06,5.64472898,4.26131668,1.82240828,-2.34510038,2.49195653e+01,6.91488981,-1.65909852,-1,-0.8616956012103927
2.06339728e+03,5.49901817e+01,-1.75816641e-06,5.64896506,4.26667418,1.81381133,-2.34510002,2.62282605e+01,6.92448861,-1.63063435,-1,-0.8583733097976126
2.11012314e+03,5.49900966e+01,-1.82251476e-06,5.65308243,4.27209863,1.80502111,-2.34509995,2.75896492e+01,6.93411202,-1.60213340,-1,-0.8549969374463793
2.15759509e+03,5.49900070e+01,-1.88754761e-06,5.65706463,4.27758642,1.79603662,-2.34509993,2.90151552e+01,6.94375497,-1.57360747,-1,-0.851566653243175
2.20584996e+03,5.49899128e+01,-1.95080614e-06,5.66089163,4.28313219,1.78685859,-2.34509999,3.04701136e+01,6.95341448,-1.54506156,-1,-0.8480797958823826
2.25491226e+03,5.49898142e+01,-2.00648693e-06,5.66454826,4.28872072,1.77750984,-2.34510026,3.18615617e+01,6.96308853,-1.51650214,-1,-0.844534594291488
2.30478321e+03,5.49897112e+01,-2.06270786e-06,5.66802179,4.29435286,1.76798233,-2.34510053,3.33173229e+01,6.97277125,-1.48794092,-1,-0.8409309603142913
2.35541988e+03,5.49896026e+01,-2.14138273e-06,5.67132948,4.30005384,1.75823421,-2.34510025,3.52094887e+01,6.98245764,-1.45939175,-1,-0.8372719960374106
2.40678980e+03,5.49894890e+01,-2.21628556e-06,5.67448645,4.30581087,1.74829865,-2.34510009,3.71138138e+01,6.99214329,-1.43086611,-1,-0.8335600477164365
2.45899651e+03,5.49893697e+01,-2.28799679e-06,5.67746856,4.31162127,1.73816890,-2.34510002,3.90492158e+01,7.00182744,-1.40236228,-1,-0.8297876336358213
2.51207474e+03,5.49892446e+01,-2.35827224e-06,5.68026573,4.31747838,1.72785327,-2.34509979,4.10493928e+01,7.01151002,-1.37388269,-1,-0.8259522442342264
2.56609349e+03,5.49891137e+01,-2.42367191e-06,5.68286903,4.32337019,1.71737129,-2.34509887,4.30561480e+01,7.02119363,-1.34541619,-1,-0.8220488936281983
2.62113473e+03,5.49889769e+01,-2.48159116e-06,5.68527035,4.32928300,1.70674633,-2.34509879,4.50234018e+01,7.03087968,-1.31695816,-1,-0.8180716587327123
2.67707385e+03,5.49888346e+01,-2.54409017e-06,5.68749968,4.33522074,1.69598551,-2.34509877,4.71675783e+01,7.04056237,-1.28852139,-1,-0.8140295437642489
2.73395906e+03,5.49886855e+01,-2.62293931e-06,5.68956451,4.34120336,1.68505269,-2.34509872,4.97453302e+01,7.05023692,-1.26011958,-1,-0.8099190651077168
2.79182867e+03,5.49885297e+01,-2.69528431e-06,5.69146894,4.34721833,1.67397497,-2.34509871,5.23469406e+01,7.05990548,-1.23174531,-1,-0.8057374545139118
