star_age,star_mass,star_mdot,log_L,log_Teff,log_R,log_surf_z,v_wind_Km_per_s,log_center_T,log_center_Rho,phase,x
7.50078827e+01,5.99988132e+01,-1.94725123e-05,5.62119830,3.86338389,2.60650852,-2.34509848,1.54247955e+01,6.32318165,-3.46235017,-1,-1.0
7.75996728e+01,5.99987602e+01,-1.96428152e-05,5.62379570,3.86401556,2.60654388,-2.34509848,1.59081967e+01,6.32506704,-3.45687571,-1,-0.9998472402777827
8.01914629e+01,5.99987071e+01,-1.98131180e-05,5.62639310,3.86464723,2.60657924,-2.34509848,1.63915979e+01,6.32695244,-3.45140126,-1,-0.9996944805555654
8.27832530e+01,5.99986541e+01,-1.99834209e-05,5.62899050,3.86527890,2.60661460,-2.34509848,1.68749992e+01,6.32883784,-3.44592681,-1,-0.9995417208333482
8.53750431e+01,5.99986011e+01,-2.01537237e-05,5.63158790,3.86591057,2.60664996,-2.34509848,1.73584004e+01,6.33072323,-3.44045235,-1,-0.999388961111131
8.79668331e+01,5.99985481e+01,-2.03240266e-05,5.63418531,3.86654224,2.60668532,-2.34509848,1.78418016e+01,6.33260863,-3.43497790,-1,-0.9992362013948076
9.06667713e+01,5.99984922e+01,-2.04942924e-05,5.63678999,3.86722917,2.60661381,-2.34509848,1.83815929e+01,6.33456968,-3.42928676,-1,-0.9990770674396946
9.37689776e+01,5.99984257e+01,-2.06644201e-05,5.63942175,3.86812162,2.60614479,-2.34509848,1.91311331e+01,6.33681213,-3.42278965,-1,-0.9988942238627211
9.68711840e+01,5.99983591e+01,-2.08345479e-05,5.64205352,3.86901407,2.60567577,-2.34509848,1.98806732e+01,6.33905459,-3.41629254,-1,-0.9987113802798535
9.99733903e+01,5.99982926e+01,-2.10046756e-05,5.64468528,3.86990652,2.60520675,-2.34509848,2.06302133e+01,6.34129704,-3.40979542,-1,-0.99852853670288
1.03075597e+02,5.99982261e+01,-2.11748034e-05,5.64731705,3.87079897,2.60473773,-2.34509849,2.13797535e+01,6.34353949,-3.40329831,-1,-0.9983456931023305
1.06177803e+02,5.99981595e+01,-2.13449312e-05,5.64994882,3.87169142,2.60426871,-2.34509849,2.21292936e+01,6.34578195,-3.39680120,-1,-0.9981628495430389
1.09492421e+02,5.99980871e+01,-2.15324147e-05,5.65260219,3.87270440,2.60356945,-2.34509849,2.30459825e+01,6.34816947,-3.38988915,-1,-0.9979674864521249
1.13114039e+02,5.99980061e+01,-2.17449825e-05,5.65528679,3.87389157,2.60253742,-2.34509849,2.42042529e+01,6.35076666,-3.38237739,-1,-0.9977540288269657
1.16735657e+02,5.99979251e+01,-2.19575504e-05,5.65797140,3.87507873,2.60150539,-2.34509849,2.53625232e+01,6.35336385,-3.37486563,-1,-0.9975405712018065
1.20357275e+02,5.99978440e+01,-2.21701183e-05,5.66065600,3.87626590,2.60047336,-2.34509849,2.65207935e+01,6.35596104,-3.36735386,-1,-0.9973271135766474
1.24005617e+02,5.99977623e+01,-2.23803823e-05,5.66333796,3.87747109,2.59940396,-2.34509849,2.77009625e+01,6.35857573,-3.35979211,-1,-0.9971120808429111
1.28086730e+02,5.99976684e+01,-2.25533383e-05,5.66597695,3.87896807,2.59772948,-2.34509849,2.92357655e+01,6.36147397,-3.35142086,-1,-0.9968715406509344
1.32167844e+02,5.99975746e+01,-2.27262943e-05,5.66861594,3.88046506,2.59605499,-2.34509848,3.07705685e+01,6.36437221,-3.34304961,-1,-0.996631000400018
1.36248957e+02,5.99974807e+01,-2.28992503e-05,5.67125493,3.88196205,2.59438051,-2.34509848,3.23053715e+01,6.36727045,-3.33467836,-1,-0.9963904602080412
1.40514321e+02,5.99973818e+01,-2.30544748e-05,5.67384407,3.88360034,2.59239850,-2.34509848,3.40145300e+01,6.37028385,-3.32597981,-1,-0.9961390602895851
1.45021125e+02,5.99972763e+01,-2.31864641e-05,5.67636789,3.88542379,2.59001352,-2.34509848,3.59521606e+01,6.37344815,-3.31685237,-1,-0.9958734299335128
1.49527929e+02,5.99971707e+01,-2.33184535e-05,5.67889170,3.88724723,2.58762854,-2.34509848,3.78897912e+01,6.37661245,-3.30772494,-1,-0.9956077995774405
1.54138900e+02,5.99970625e+01,-2.34386123e-05,5.68137250,3.88915906,2.58504528,-2.34509848,3.99252793e+01,6.37983862,-3.29842266,-1,-0.9953360296339131
1.59040938e+02,5.99969465e+01,-2.35257140e-05,5.68373309,3.89131784,2.58190801,-2.34509848,4.22342014e+01,6.38323766,-3.28863185,-1,-0.9950471042447859
1.63942976e+02,5.99968305e+01,-2.36128157e-05,5.68609368,3.89347663,2.57877073,-2.34509848,4.45431236e+01,6.38663669,-3.27884103,-1,-0.9947581788556588
1.69019334e+02,5.99967102e+01,-2.36746037e-05,5.68835897,3.89579579,2.57526505,-2.34509848,4.69782148e+01,6.39013320,-3.26877659,-1,-0.994458979071712
1.74280030e+02,5.99965853e+01,-2.37096238e-05,5.69052349,3.89828455,2.57136980,-2.34509848,4.95467242e+01,6.39373278,-3.25842280,-1,-0.9941489144335186
1.79563754e+02,5.99964599e+01,-2.37405871e-05,5.69267193,3.90079583,2.56742145,-2.34509848,5.21241798e+01,6.39734440,-3.24803556,-1,-0.9938374925284374
1.85144394e+02,5.99963276e+01,-2.37192447e-05,5.69461306,3.90359754,2.56278861,-2.34509848,5.48169827e+01,6.40111124,-3.23721711,-1,-0.9935085704385681
1.90725035e+02,5.99961954e+01,-2.36979023e-05,5.69655420,3.90639924,2.55815577,-2.34509848,5.75097857e+01,6.40487808,-3.22639865,-1,-0.993179648289759
1.96579356e+02,5.99960575e+01,-2.36228708e-05,5.69826301,3.90947716,2.55285434,-2.34509848,6.02221178e+01,6.40877732,-3.21521710,-1,-0.9928345954825387
2.02466949e+02,5.99959189e+01,-2.35411101e-05,5.69994075,3.91258874,2.54747006,-2.34509848,6.29312392e+01,6.41269180,-3.20399384,-1,-0.9924875816285973
2.08590450e+02,5.99957760e+01,-2.34108447e-05,5.70138710,3.91593929,2.54149213,-2.34509848,6.55956475e+01,6.41671109,-3.19248431,-1,-0.9921266633922952
2.14806728e+02,5.99956317e+01,-2.32615045e-05,5.70273165,3.91938170,2.53527957,-2.34509848,6.82236990e+01,6.42076826,-3.18087462,-1,-0.9917602768934405
2.21165555e+02,5.99954851e+01,-2.30828566e-05,5.70391981,3.92296526,2.52870653,-2.34509848,7.07958896e+01,6.42488364,-3.16911103,-1,-0.9913854885777711
2.27710305e+02,5.99953360e+01,-2.28670813e-05,5.70489108,3.92672537,2.52167196,-2.34509848,7.32672294e+01,6.42906732,-3.15716692,-1,-0.9909997419881914
2.34374643e+02,5.99951854e+01,-2.26285338e-05,5.70571991,3.93059372,2.51434966,-2.34509848,7.56576820e+01,6.43329410,-3.14510953,-1,-0.990606946899715
2.41174822e+02,5.99950334e+01,-2.23648822e-05,5.70638502,3.93458132,2.50670702,-2.34509848,7.79461279e+01,6.43756809,-3.13292888,-1,-0.9902061453629439
2.48157506e+02,5.99948797e+01,-2.20703350e-05,5.70682369,3.93871484,2.49865932,-2.34509848,8.00653710e+01,6.44189188,-3.12062373,-1,-0.9897945870086733
2.55296747e+02,5.99947248e+01,-2.17516995e-05,5.70707778,3.94296580,2.49028444,-2.34509848,8.20117216e+01,6.44626190,-3.10819870,-1,-0.9893738012081558
2.62586655e+02,5.99945689e+01,-2.14125075e-05,5.70715539,3.94731828,2.48161829,-2.34509848,8.37747904e+01,6.45067011,-3.09567411,-1,-0.9889441351171133
2.70036164e+02,5.99944123e+01,-2.10539375e-05,5.70704786,3.95176587,2.47266935,-2.34509848,8.53296862e+01,6.45511178,-3.08306376,-1,-0.9885050621669176
2.77653307e+02,5.99942549e+01,-2.06775426e-05,5.70675236,3.95630028,2.46345277,-2.34509849,8.66595447e+01,6.45958475,-3.07037220,-1,-0.9880561088937458
2.85451018e+02,5.99940968e+01,-2.03015918e-05,5.70626418,3.96091274,2.45398376,-2.34509849,8.78297999e+01,6.46409023,-3.05759042,-1,-0.9875965129695657
2.93412415e+02,5.99939379e+01,-1.99648540e-05,5.70560233,3.96558205,2.44431421,-2.34509849,8.90317862e+01,6.46861996,-3.04473808,-1,-0.9871272694169411
3.01634100e+02,5.99937780e+01,-1.96138022e-05,5.70472460,3.97031800,2.43440345,-2.34509850,8.99752711e+01,6.47318384,-3.03177541,-1,-0.9866426845283894
3.09996889e+02,5.99936180e+01,-1.91813028e-05,5.70375527,3.97508776,2.42437926,-2.34509850,9.04320850e+01,6.47777103,-3.01873338,-1,-0.9861497829911077
3.18565259e+02,5.99934581e+01,-1.86811599e-05,5.70264622,3.97990206,2.41419614,-2.34509850,9.04224474e+01,6.48239028,-3.00557717,-1,-0.9856447645403255
3.27353067e+02,5.99932981e+01,-1.82144681e-05,5.70137524,3.98475192,2.40386094,-2.34509850,9.04234177e+01,6.48703862,-2.99230454,-1,-0.9851268124465279
3.36374895e+02,5.99931378e+01,-1.77771129e-05,5.69994784,3.98962568,2.39339970,-2.34509850,9.04401547e+01,6.49171384,-2.97890899,-1,-0.9845950672488084
3.45609160e+02,5.99929771e+01,-1.74068179e-05,5.69839541,3.99451004,2.38285477,-2.34509851,9.06997064e+01,6.49640746,-2.96540755,-1,-0.9840508010459702
3.55164738e+02,5.99928157e+01,-1.70345820e-05,5.69670038,3.99939950,2.37222834,-2.34509851,9.08374593e+01,6.50112928,-2.95173116,-1,-0.9834875967028001
3.64918736e+02,5.99926573e+01,-1.63287742e-05,5.69492295,4.00429405,2.36155052,-2.34509851,8.90756510e+01,6.50587817,-2.93792064,-1,-0.9829126975144021
3.74935636e+02,5.99925100e+01,-1.47644809e-05,5.69303853,4.00919124,2.35081394,-2.34509851,8.23415806e+01,6.51066426,-2.92392135,-1,-0.9823223029213068
3.85231139e+02,5.99923808e+01,-1.25590359e-05,5.69104610,4.01408374,2.34003272,-2.34509851,7.16201722e+01,6.51548654,-2.90972661,-1,-0.981715487508914
3.95828387e+02,5.99922691e+01,-1.06635741e-05,5.68895692,4.01896433,2.32922695,-2.34509852,6.21401670e+01,6.52034273,-2.89533642,-1,-0.9810908872911929
4.06711000e+02,5.99921725e+01,-9.04090250e-06,5.68679943,4.02383039,2.31841609,-2.34509853,5.38131021e+01,6.52523390,-2.88075437,-1,-0.9804494677029022
4.17871605e+02,5.99920903e+01,-7.47035214e-06,5.68458430,4.02868070,2.30760790,-2.34509853,4.54248291e+01,6.53016240,-2.86598173,-1,-0.979791663307563
4.29394622e+02,5.99920302e+01,-5.45967096e-06,5.68227798,4.03351457,2.29678700,-2.34509853,3.38437583e+01,6.53515759,-2.85093350,-1,-0.9791124984029572
4.41230206e+02,5.99919877e+01,-3.65527442e-06,5.67990698,4.03833127,2.28596810,-2.34509853,2.31062834e+01,6.54021594,-2.83564099,-1,-0.9784149108459559
4.53433304e+02,5.99919629e+01,-2.24518203e-06,5.67748368,4.04312201,2.27517497,-2.34509854,1.44472891e+01,6.54533625,-2.82010890,-1,-0.9776956620685684
4.65990033e+02,5.99919462e+01,-1.43345277e-06,5.67502368,4.04788623,2.26441653,-2.34509855,9.42024723,6.55051951,-2.80434942,-1,-0.9769555703327456
4.78831127e+02,5.99919323e+01,-1.07816083e-06,5.67253187,4.05262994,2.25368321,-2.34509856,7.24942157,6.55575769,-2.78839980,-1,-0.9761987181662041
4.92069172e+02,5.99919181e+01,-1.07696256e-06,5.66997973,4.05734816,2.24297069,-2.34509855,7.39105450,6.56108182,-2.77216637,-1,-0.9754184697668836
5.05729532e+02,5.99919034e+01,-1.07537105e-06,5.66738685,4.06203510,2.23230038,-2.34509855,7.53451785,6.56649440,-2.75564612,-1,-0.9746133301844043
5.19832841e+02,5.99918882e+01,-1.07384391e-06,5.66480167,4.06668882,2.22170035,-2.34509856,7.68124102,6.57199079,-2.73885754,-1,-0.9737820832538816
5.34362666e+02,5.99918727e+01,-1.07228565e-06,5.66222844,4.07130918,2.21117301,-2.34509857,7.82928687,6.57756702,-2.72181497,-1,-0.9729256975338862
5.49218209e+02,5.99918568e+01,-1.07051936e-06,5.65965468,4.07590591,2.20069267,-2.34509858,7.97672657,6.58320796,-2.70456807,-1,-0.9720501140435154
5.64529272e+02,5.99918404e+01,-1.06831096e-06,5.65707232,4.08047180,2.19026972,-2.34509857,8.12185726,6.58894345,-2.68702416,-1,-0.9711476822722346
5.80310966e+02,5.99918236e+01,-1.06613254e-06,5.65451136,4.08500485,2.17992313,-2.34509857,8.26767796,6.59477229,-2.66918608,-1,-0.970217511579956
5.96626197e+02,5.99918062e+01,-1.06440955e-06,5.65202974,4.08950142,2.16968919,-2.34509858,8.41710001,6.60070097,-2.65103571,-1,-0.9692558942964149
6.13463470e+02,5.99917883e+01,-1.06291491e-06,5.64962521,4.09395949,2.15957078,-2.34509860,8.56900863,6.60671637,-2.63261081,-1,-0.9682635079351983
6.30669338e+02,5.99917701e+01,-1.06146886e-06,5.64726602,4.09839390,2.14952236,-2.34509860,8.72229128,6.61279931,-2.61397505,-1,-0.9672493966396166
6.48398484e+02,5.99917513e+01,-1.06003736e-06,5.64496745,4.10279854,2.13956380,-2.34509860,8.87755694,6.61898353,-2.59502538,-1,-0.9662044434167035
6.66671775e+02,5.99917319e+01,-1.05900671e-06,5.64276729,4.10717492,2.12971096,-2.34509861,9.03770384,6.62526784,-2.57576328,-1,-0.965127418368589
6.85601447e+02,5.99917119e+01,-1.05862269e-06,5.64074523,4.11151621,2.12001735,-2.34509863,9.20356933,6.63166149,-2.55615992,-1,-0.9640117063221606
7.05089221e+02,5.99916913e+01,-1.05877078e-06,5.63888688,4.11582856,2.11046347,-2.34509866,9.37365598,6.63814619,-2.53627340,-1,-0.9628630998270309
7.24979105e+02,5.99916702e+01,-1.05945419e-06,5.63713930,4.12012334,2.10100012,-2.34509869,9.54832613,6.64469951,-2.51617445,-1,-0.9616907930284311
7.45504400e+02,5.99916484e+01,-1.06135658e-06,5.63554890,4.12439838,2.09165484,-2.34509868,9.73403519,6.65136868,-2.49571907,-1,-0.9604810352001921
7.66714735e+02,5.99916258e+01,-1.06411799e-06,5.63417118,4.12865266,2.08245743,-2.34509869,9.92684457,6.65815762,-2.47489788,-1,-0.9592309012164505
7.88583677e+02,5.99916025e+01,-1.06727840e-06,5.63305107,4.13288429,2.07343410,-2.34509873,1.01215982e+01,6.66505344,-2.45375692,-1,-0.9579419490342868
8.11037617e+02,5.99915784e+01,-1.07118729e-06,5.63217429,4.13709963,2.06456504,-2.34509878,1.03221167e+01,6.67204485,-2.43233032,-1,-0.9566185171571903
8.33997663e+02,5.99915537e+01,-1.07588327e-06,5.63151192,4.14130218,2.05582875,-2.34509885,1.05290614e+01,6.67911936,-2.41065546,-1,-0.9552652554678831
8.57800501e+02,5.99915278e+01,-1.08456011e-06,5.63114788,4.14549918,2.04725274,-2.34509885,1.07763868e+01,6.68633810,-2.38855354,-1,-0.9538623197437044
8.82202861e+02,5.99915011e+01,-1.09436474e-06,5.63102601,4.14969421,2.03880173,-2.34509886,1.10362155e+01,6.69365876,-2.36615006,-1,-0.9524240482821977
9.07307696e+02,5.99914733e+01,-1.10445926e-06,5.63122219,4.15388653,2.03051519,-2.34509891,1.12997669e+01,6.70109343,-2.34341295,-1,-0.9509443730488868
9.32981811e+02,5.99914447e+01,-1.11452509e-06,5.63169434,4.15807685,2.02237062,-2.34509901,1.15632953e+01,6.70861702,-2.32041826,-1,-0.9494311445372207
9.59624973e+02,5.99914145e+01,-1.12674225e-06,5.63263522,4.16227154,2.01445169,-2.34509912,1.18496140e+01,6.71629041,-2.29699184,-1,-0.9478608005397999
9.86769279e+02,5.99913834e+01,-1.14324196e-06,5.63377794,4.16647889,2.00660835,-2.34509917,1.21835308e+01,6.72404938,-2.27331721,-1,-0.946260919189709
1.01459750e+03,5.99913509e+01,-1.16441078e-06,5.63520065,4.17070384,1.99886979,-2.34509918,1.25700751e+01,6.73192417,-2.24930851,-1,-0.9446207279914477
1.04316704e+03,5.99913170e+01,-1.18660418e-06,5.63694242,4.17494900,1.99125036,-2.34509921,1.29713198e+01,6.73992111,-2.22495372,-1,-0.9429368435618116
1.07257225e+03,5.99912813e+01,-1.21081464e-06,5.63905602,4.17922582,1.98375353,-2.34509925,1.33986153e+01,6.74805788,-2.20020454,-1,-0.9412037048669226
1.10276445e+03,5.99912439e+01,-1.23362560e-06,5.64152700,4.18353042,1.97637982,-2.34509942,1.38129093e+01,6.75630565,-2.17515056,-1,-0.9394241810987254
1.13364893e+03,5.99912048e+01,-1.25775339e-06,5.64429078,4.18786536,1.96909183,-2.34509964,1.42446862e+01,6.76465308,-2.14982575,-1,-0.9376038544505048
1.16506350e+03,5.99911644e+01,-1.28343191e-06,5.64727423,4.19222478,1.96186471,-2.34509987,1.46960068e+01,6.77307732,-2.12429278,-1,-0.9357522843766879
1.19748205e+03,5.99911212e+01,-1.32381861e-06,5.65057507,4.19664958,1.95466553,-2.34509985,1.53253853e+01,6.78165943,-2.09832134,-1,-0.9338415398713028
1.23056305e+03,5.99910758e+01,-1.36518891e-06,5.65408299,4.20111896,1.94748074,-2.34509985,1.59735790e+01,6.79034047,-2.07208280,-1,-0.9318917506616483
1.26437454e+03,5.99910282e+01,-1.40778171e-06,5.65781209,4.20564019,1.94030281,-2.34509988,1.66448251e+01,6.79913038,-2.04555105,-1,-0.9298989064802651
1.29893564e+03,5.99909779e+01,-1.45247261e-06,5.66175064,4.21021673,1.93311901,-2.34509992,1.73507857e+01,6.80802825,-2.01873084,-1,-0.9278618803972025
1.33429047e+03,5.99909248e+01,-1.49712198e-06,5.66588484,4.21484993,1.92591972,-2.34510005,1.80675204e+01,6.81703112,-1.99163648,-1,-0.9257780719862365
1.37033530e+03,5.99908693e+01,-1.53874419e-06,5.67016933,4.21952985,1.91870212,-2.34510023,1.87583787e+01,6.82611866,-1.96432615,-1,-0.9236535950781071
1.40736192e+03,5.99908100e+01,-1.58347220e-06,5.67460430,4.22428275,1.91141380,-2.34509940,1.95055165e+01,6.83532088,-1.93672330,-1,-0.9214712516137022
1.44500855e+03,5.99907478e+01,-1.64278823e-06,5.67909564,4.22909757,1.90402984,-2.34509970,2.04516193e+01,6.84460111,-1.90891777,-1,-0.9192523648523028
1.48339975e+03,5.99906821e+01,-1.71043965e-06,5.68365017,4.23398637,1.89652949,-2.34510022,2.15253295e+01,6.85397044,-1.88088286,-1,-0.916989593246073
1.52256591e+03,5.99906124e+01,-1.77731118e-06,5.68825846,4.23895175,1.88890288,-2.34510007,2.26182469e+01,6.86342506,-1.85263165,-1,-0.9146811456129422
1.56251057e+03,5.99905387e+01,-1.84526994e-06,5.69289925,4.24399401,1.88113875,-2.34509997,2.37563041e+01,6.87295889,-1.82418310,-1,-0.912326813305838
1.60323428e+03,5.99904607e+01,-1.91523490e-06,5.69754569,4.24911351,1.87322297,-2.34509989,2.49546907e+01,6.88256569,-1.79555705,-1,-0.9099265639078422
1.64478149e+03,5.99903782e+01,-1.98344647e-06,5.70216541,4.25430818,1.86514349,-2.34509989,2.61682337e+01,6.89224193,-1.76676427,-1,-0.9074777775425796
1.68711598e+03,5.99902914e+01,-2.04571537e-06,5.70672714,4.25956441,1.85691191,-2.34509998,2.73407089e+01,6.90197603,-1.73783707,-1,-0.9049825890114522
1.73026548e+03,5.99902000e+01,-2.10991145e-06,5.71119644,4.26488802,1.84849934,-2.34509994,2.85803673e+01,6.91176295,-1.70879200,-1,-0.9024393639123929
1.77420025e+03,5.99901030e+01,-2.20079596e-06,5.71556496,4.27030908,1.83984147,-2.34509970,3.02397275e+01,6.92160126,-1.67962832,-1,-0.8998498551165689
1.81886253e+03,5.99900007e+01,-2.29130975e-06,5.71983888,4.27581444,1.83096771,-2.34509953,3.19534093e+01,6.93147924,-1.65037746,-1,-0.897217466989772
1.86428722e+03,5.99898928e+01,-2.37949738e-06,5.72400223,4.28140199,1.82187428,-2.34509944,3.37007577e+01,6.94139245,-1.62105414,-1,-0.8945401425312037
1.91049117e+03,5.99897792e+01,-2.46739531e-06,5.72803591,4.28706712,1.81256088,-2.34509937,3.55137803e+01,6.95133643,-1.59166910,-1,-0.8918168886043751
1.95755552e+03,5.99896590e+01,-2.55592034e-06,5.73190720,4.29281222,1.80300631,-2.34509930,3.74169369e+01,6.96130846,-1.56223014,-1,-0.8890429228297794
2.00549398e+03,5.99895323e+01,-2.64179479e-06,5.73559977,4.29862637,1.79322429,-2.34509908,3.93636000e+01,6.97130429,-1.53274742,-1,-0.8862174371420598
2.05434344e+03,5.99893994e+01,-2.71720888e-06,5.73909800,4.30448775,1.78325066,-2.34509912,4.12325872e+01,6.98132279,-1.50322227,-1,-0.8833382572501143
2.10402958e+03,5.99892606e+01,-2.79435987e-06,5.74240693,4.31039609,1.77308845,-2.34509877,4.32037147e+01,6.99135558,-1.47367513,-1,-0.8804097635636665
2.15457716e+03,5.99891139e+01,-2.90186645e-06,5.74552645,4.31639138,1.76265762,-2.34509869,4.57574248e+01,7.00139376,-1.44413128,-1,-0.8774304967320065
2.20599723e+03,5.99889598e+01,-3.00081380e-06,5.74846618,4.32245542,1.75199940,-2.34509866,4.82991560e+01,7.01143537,-1.41459458,-1,-0.874399805469781
2.25831760e+03,5.99887980e+01,-3.09610365e-06,5.75121932,4.32857570,1.74113541,-2.34509865,5.09080412e+01,7.02148153,-1.38506111,-1,-0.871316050659735
2.31157761e+03,5.99886286e+01,-3.18948305e-06,5.75377847,4.33474268,1.73008102,-2.34509865,5.36204494e+01,7.03152856,-1.35553957,-1,-0.8681769136081318
2.36594014e+03,5.99884510e+01,-3.27112903e-06,5.75612099,4.34094031,1.71885703,-2.34509868,5.62858882e+01,7.04158801,-1.32599410,-1,-0.8649727941920464
2.42150620e+03,5.99882646e+01,-3.34762945e-06,5.75823859,4.34716045,1.70747554,-2.34509870,5.90309441e+01,7.05165818,-1.29642792,-1,-0.8616977388971336
2.47799858e+03,5.99880703e+01,-3.44335945e-06,5.76019581,4.35342019,1.69593468,-2.34509868,6.22904614e+01,7.06172673,-1.26687365,-1,-0.8583680864394782
2.53551613e+03,5.99878672e+01,-3.54281624e-06,5.76198993,4.35972301,1.68422610,-2.34509866,6.58271173e+01,7.07179269,-1.23733351,-1,-0.8549780106148126
2.59420202e+03,5.99876544e+01,-3.63547853e-06,5.76360769,4.36605673,1.67236754,-2.34509866,6.94691475e+01,7.08186071,-1.20778761,-1,-0.8515190730046748
2.65424621e+03,5.99874311e+01,-3.72023297e-06,5.76503545,4.37240662,1.66038164,-2.34509868,7.31999611e+01,7.09193657,-1.17821778,-1,-0.847980077394976
2.71568510e+03,5.99871979e+01,-3.79334131e-06,5.76628847,4.37875299,1.64831540,-2.34509872,7.69148572e+01,7.10202348,-1.14861397,-1,-0.8443588783751415
2.77837387e+03,5.99869552e+01,-3.87436360e-06,5.76740241,4.38510691,1.63616454,-2.34509874,8.10059865e+01,7.11211469,-1.11899293,-1,-0.8406640116143872
