star_age,star_mass,star_mdot,log_Teff,log_R,log_surf_z,surface_h1,surface_he3,log_center_T,log_center_Rho,phase,x
7.25417801e+01,6.99965762e+01,-4.04623046e-05,3.95981662,2.53835926,-2.34509848,7.39732020e-01,4.24450722e-05,6.49049695,-3.02696343,-1,-1.0
7.46568746e+01,6.99964938e+01,-3.98986712e-05,3.96188756,2.53374547,-2.34509848,7.39732020e-01,4.24450722e-05,6.49186063,-3.02317299,-1,-0.9998154315654811
7.67719691e+01,6.99964114e+01,-3.93350378e-05,3.96395851,2.52913168,-2.34509848,7.39732020e-01,4.24450722e-05,6.49322430,-3.01938254,-1,-0.9996308631309623
7.89341178e+01,6.99963281e+01,-3.87860255e-05,3.96605358,2.52445856,-2.34509848,7.39732020e-01,4.24450722e-05,6.49461062,-3.01552707,-1,-0.9994421886293
8.11987934e+01,6.99962426e+01,-3.82688711e-05,3.96820122,2.51965618,-2.34509848,7.39732020e-01,4.24450722e-05,6.49604627,-3.01152994,-1,-0.999244567373992
8.34634690e+01,6.99961572e+01,-3.77517168e-05,3.97034886,2.51485379,-2.34509848,7.39732020e-01,4.24450722e-05,6.49748192,-3.00753282,-1,-0.999046946118684
8.58656113e+01,6.99960691e+01,-3.72529581e-05,3.97256055,2.50989373,-2.34509848,7.39732020e-01,4.24450722e-05,6.49898091,-3.00335018,-1,-0.998837329175421
8.82737337e+01,6.99959808e+01,-3.67549997e-05,3.97477504,2.50492681,-2.34509848,7.39732020e-01,4.24450722e-05,6.50048265,-2.99915947,-1,-0.9986271903936796
9.08023736e+01,6.99958902e+01,-3.63216169e-05,3.97704221,2.49983472,-2.34509848,7.39732020e-01,4.24450721e-05,6.50203611,-2.99481243,-1,-0.9984065349535539
9.33663643e+01,6.99957989e+01,-3.59071757e-05,3.97932484,2.49470591,-2.34509848,7.39732020e-01,4.24450721e-05,6.50360475,-2.99041954,-1,-0.9981827947142313
9.59885253e+01,6.99957064e+01,-3.54910485e-05,3.98162757,2.48952929,-2.34509848,7.39732020e-01,4.24450721e-05,6.50519731,-2.98595261,-1,-0.9979539783890854
9.87398772e+01,6.99956116e+01,-3.50711769e-05,3.98397494,2.48424652,-2.34509849,7.39732020e-01,4.24450721e-05,6.50684303,-2.98132124,-1,-0.9977138885429846
1.01491229e+02,6.99955168e+01,-3.46513053e-05,3.98632230,2.47896374,-2.34509849,7.39732020e-01,4.24450721e-05,6.50848875,-2.97668987,-1,-0.9974737987056101
1.04349507e+02,6.99954204e+01,-3.41446676e-05,3.98869847,2.47360815,-2.34509849,7.39732020e-01,4.24450721e-05,6.51017924,-2.97191973,-1,-0.9972243782206721
1.07293019e+02,6.99953227e+01,-3.35688662e-05,3.99109758,2.46819453,-2.34509849,7.39732020e-01,4.24450721e-05,6.51190541,-2.96703898,-1,-0.9969675200037804
1.10291580e+02,6.99952243e+01,-3.30115074e-05,3.99351085,2.46274537,-2.34509849,7.39732020e-01,4.24450721e-05,6.51365345,-2.96208848,-1,-0.9967058580735076
1.13409053e+02,6.99951241e+01,-3.24939863e-05,3.99595468,2.45721944,-2.34509849,7.39732020e-01,4.24450721e-05,6.51544873,-2.95698734,-1,-0.9964338195847948
1.16582124e+02,6.99950231e+01,-3.20089646e-05,3.99841308,2.45166015,-2.34509849,7.39732020e-01,4.24450721e-05,6.51726453,-2.95181827,-1,-0.9961569294755882
1.19885219e+02,6.99949201e+01,-3.15999479e-05,4.00090555,2.44602282,-2.34509849,7.39732020e-01,4.24450721e-05,6.51912835,-2.94649033,-1,-0.9958686931470379
1.23191712e+02,6.99948171e+01,-3.11779458e-05,4.00339874,2.44038385,-2.34509849,7.39732021e-01,4.24450721e-05,6.52099338,-2.94115826,-1,-0.9955801603005113
1.26717887e+02,6.99947185e+01,-2.99160848e-05,4.00593815,2.43463894,-2.34509849,7.39732021e-01,4.24450721e-05,6.52293725,-2.93555905,-1,-0.9952724574533858
1.30244062e+02,6.99946199e+01,-2.86542238e-05,4.00847756,2.42889404,-2.34509849,7.39732021e-01,4.24450721e-05,6.52488113,-2.92995984,-1,-0.9949647546062603
1.33872290e+02,6.99945272e+01,-2.68430044e-05,4.01103397,2.42310486,-2.34509849,7.39732021e-01,4.24450721e-05,6.52686326,-2.92423364,-1,-0.9946481463591879
1.37626523e+02,6.99944418e+01,-2.43534911e-05,4.01361135,2.41726100,-2.34509849,7.39732021e-01,4.24450721e-05,6.52889264,-2.91835064,-1,-0.9943205426007605
1.41454812e+02,6.99943604e+01,-2.19865951e-05,4.01620104,2.41138585,-2.34509849,7.39732021e-01,4.24450721e-05,6.53094876,-2.91237708,-1,-0.9939864765306082
1.45414737e+02,6.99942863e+01,-1.98376559e-05,4.01881262,2.40545509,-2.34509849,7.39732021e-01,4.24450721e-05,6.53305240,-2.90624253,-1,-0.9936409235739615
1.49478742e+02,6.99942173e+01,-1.79283904e-05,4.02144308,2.39948228,-2.34509849,7.39732021e-01,4.24450721e-05,6.53519162,-2.89998599,-1,-0.9932862883362797
1.53657851e+02,6.99941538e+01,-1.62841823e-05,4.02409442,2.39346297,-2.34509849,7.39732021e-01,4.24450720e-05,6.53737020,-2.89359455,-1,-0.9929216088357593
1.57924137e+02,6.99940947e+01,-1.46568355e-05,4.02675900,2.38741315,-2.34509849,7.39732021e-01,4.24450720e-05,6.53957842,-2.88710263,-1,-0.9925493220522469
1.62366389e+02,6.99940444e+01,-1.30635233e-05,4.02945032,2.38130174,-2.34509850,7.39732021e-01,4.24450720e-05,6.54184649,-2.88040790,-1,-0.9921616800356002
1.66808641e+02,6.99939941e+01,-1.14702110e-05,4.03214164,2.37519033,-2.34509850,7.39732022e-01,4.24450720e-05,6.54411456,-2.87371316,-1,-0.9917740380189535
1.71496050e+02,6.99939588e+01,-9.41522308e-06,4.03486245,2.36899618,-2.34509850,7.39732022e-01,4.24450720e-05,6.54647080,-2.86672924,-1,-0.9913650029895117
1.76207295e+02,6.99939249e+01,-7.31534615e-06,4.03758612,2.36279398,-2.34509850,7.39732022e-01,4.24450720e-05,6.54883563,-2.85971720,-1,-0.990953887971112
1.81145775e+02,6.99939044e+01,-5.49500563e-06,4.04033590,2.35652077,-2.34509850,7.39732022e-01,4.24450719e-05,6.55128008,-2.85244609,-1,-0.9905229438584481
1.86137551e+02,6.99938863e+01,-3.80782795e-06,4.04309225,2.35023169,-2.34509850,7.39732023e-01,4.24450719e-05,6.55374261,-2.84511653,-1,-0.9900873490035662
1.91350940e+02,6.99938764e+01,-2.79282144e-06,4.04587671,2.34387805,-2.34509850,7.39732023e-01,4.24450719e-05,6.55627925,-2.83754796,-1,-0.9896324156441972
1.96596431e+02,6.99938666e+01,-1.88231766e-06,4.04866451,2.33751616,-2.34509850,7.39732023e-01,4.24450718e-05,6.55882645,-2.82994576,-1,-0.9891746809840425
2.02121035e+02,6.99938562e+01,-1.88044810e-06,4.05148133,2.33108250,-2.34509851,7.39732024e-01,4.24450718e-05,6.56146548,-2.82205115,-1,-0.9886925902256312
2.07645639e+02,6.99938458e+01,-1.87857855e-06,4.05429815,2.32464885,-2.34509851,7.39732025e-01,4.24450717e-05,6.56410450,-2.81415655,-1,-0.9882104994672197
2.13422129e+02,6.99938350e+01,-1.87601028e-06,4.05713450,2.31815235,-2.34509851,7.39732025e-01,4.24450717e-05,6.56683009,-2.80599361,-1,-0.9877064285066486
2.19265060e+02,6.99938240e+01,-1.87325771e-06,4.05997600,2.31163928,-2.34509851,7.39732025e-01,4.24450717e-05,6.56957851,-2.79775989,-1,-0.9871965597382925
2.25366809e+02,6.99938126e+01,-1.87029999e-06,4.06283506,2.30507310,-2.34509851,7.39732025e-01,4.24450716e-05,6.57241329,-2.78925895,-1,-0.9866641058641242
2.31553008e+02,6.99938011e+01,-1.86738424e-06,4.06570041,2.29849123,-2.34509851,7.39732026e-01,4.24450716e-05,6.57527507,-2.78067469,-1,-0.9861242826718024
2.37991769e+02,6.99937891e+01,-1.86476810e-06,4.06858547,2.29186510,-2.34509851,7.39732027e-01,4.24450714e-05,6.57821566,-2.77184747,-1,-0.9855624202878706
2.44509971e+02,6.99937770e+01,-1.86214931e-06,4.07147503,2.28522795,-2.34509852,7.39732028e-01,4.24450713e-05,6.58118036,-2.76294613,-1,-0.9849936256836495
2.51318856e+02,6.99937643e+01,-1.85952084e-06,4.07438108,2.27855049,-2.34509852,7.39732027e-01,4.24450714e-05,6.58423327,-2.75377354,-1,-0.984399465354043
2.58127741e+02,6.99937517e+01,-1.85689237e-06,4.07728713,2.27187302,-2.34509852,7.39732026e-01,4.24450715e-05,6.58728618,-2.74460095,-1,-0.9838053050244364
2.65310219e+02,6.99937384e+01,-1.85319509e-06,4.08020713,2.26514394,-2.34509852,7.39732027e-01,4.24450715e-05,6.59045673,-2.73506946,-1,-0.9831785440355415
2.72550794e+02,6.99937250e+01,-1.84947429e-06,4.08312895,2.25840925,-2.34509852,7.39732027e-01,4.24450714e-05,6.59364491,-2.72548398,-1,-0.9825467133571645
2.80082995e+02,6.99937111e+01,-1.84570963e-06,4.08605973,2.25164768,-2.34509852,7.39732027e-01,4.24450715e-05,6.59692123,-2.71562841,-1,-0.9818894346648643
2.87793250e+02,6.99936969e+01,-1.84225662e-06,4.08899696,2.24487601,-2.34509852,7.39732026e-01,4.24450715e-05,6.60024740,-2.70561985,-1,-0.981216618535329
2.95693981e+02,6.99936824e+01,-1.83913701e-06,4.09194107,2.23809355,-2.34509853,7.39732026e-01,4.24450716e-05,6.60362689,-2.69544761,-1,-0.9805271809937797
3.03849023e+02,6.99936674e+01,-1.83609593e-06,4.09489018,2.23130502,-2.34509853,7.39732025e-01,4.24450716e-05,6.60707549,-2.68506245,-1,-0.9798155516385071
3.12193667e+02,6.99936522e+01,-1.83311340e-06,4.09784300,2.22451198,-2.34509854,7.39732025e-01,4.24450716e-05,6.61057562,-2.67451855,-1,-0.9790873771386456
3.20721295e+02,6.99936366e+01,-1.82976900e-06,4.10079811,2.21771212,-2.34509854,7.39732025e-01,4.24450716e-05,6.61412790,-2.66381579,-1,-0.9783432349974225
3.29520541e+02,6.99936205e+01,-1.82588746e-06,4.10375660,2.21090213,-2.34509854,7.39732025e-01,4.24450716e-05,6.61775758,-2.65287721,-1,-0.9775753907903829
3.38572060e+02,6.99936040e+01,-1.82218815e-06,4.10671689,2.20409369,-2.34509854,7.39732025e-01,4.24450716e-05,6.62145573,-2.64172852,-1,-0.9767855326105958
3.47786349e+02,6.99935873e+01,-1.81860643e-06,4.10967836,2.19728626,-2.34509854,7.39732025e-01,4.24450716e-05,6.62519805,-2.63044426,-1,-0.9759814707136287
3.57431036e+02,6.99935698e+01,-1.81587088e-06,4.11264459,2.19049773,-2.34509854,7.39732026e-01,4.24450715e-05,6.62904827,-2.61882904,-1,-0.9751398512110419
3.67137232e+02,6.99935522e+01,-1.81320724e-06,4.11561108,2.18371303,-2.34509855,7.39732027e-01,4.24450715e-05,6.63291359,-2.60716745,-1,-0.9742928642793216
3.77333553e+02,6.99935338e+01,-1.81098784e-06,4.11857842,2.17696175,-2.34509856,7.39732028e-01,4.24450713e-05,6.63689847,-2.59513885,-1,-0.9734031078146238
3.87529874e+02,6.99935153e+01,-1.80876843e-06,4.12154575,2.17021046,-2.34509857,7.39732030e-01,4.24450712e-05,6.64088335,-2.58311025,-1,-0.972513351349926
3.98247131e+02,6.99934960e+01,-1.80659333e-06,4.12451532,2.16348014,-2.34509857,7.39732030e-01,4.24450712e-05,6.64500301,-2.57067205,-1,-0.9715781367073526
4.09078978e+02,6.99934764e+01,-1.80455111e-06,4.12748521,2.15675755,-2.34509857,7.39732030e-01,4.24450712e-05,6.64915124,-2.55814673,-1,-0.9706329226548657
4.20326520e+02,6.99934562e+01,-1.80313359e-06,4.13045612,2.15006663,-2.34509857,7.39732030e-01,4.24450712e-05,6.65340192,-2.54530883,-1,-0.9696514340173011
4.31866938e+02,6.99934354e+01,-1.80222484e-06,4.13342854,2.14340904,-2.34509858,7.39732031e-01,4.24450711e-05,6.65771947,-2.53226726,-1,-0.968644388287688
4.43655093e+02,6.99934141e+01,-1.80174646e-06,4.13640224,2.13677965,-2.34509860,7.39732033e-01,4.24450709e-05,6.66209360,-2.51905343,-1,-0.9676157244080288
4.55880735e+02,6.99933921e+01,-1.80200279e-06,4.13937705,2.13020617,-2.34509862,7.39732035e-01,4.24450707e-05,6.66656546,-2.50554211,-1,-0.9665488843188847
4.68317774e+02,6.99933697e+01,-1.80261414e-06,4.14235242,2.12365971,-2.34509864,7.39732038e-01,4.24450704e-05,6.67108454,-2.49188704,-1,-0.965463597198957
4.81118452e+02,6.99933465e+01,-1.80440001e-06,4.14533222,2.11714439,-2.34509864,7.39732039e-01,4.24450703e-05,6.67569016,-2.47797057,-1,-0.9643465780306693
4.94216537e+02,6.99933229e+01,-1.80714649e-06,4.14831566,2.11065454,-2.34509864,7.39732039e-01,4.24450703e-05,6.68036656,-2.46384030,-1,-0.9632036063839438
5.07785729e+02,6.99932983e+01,-1.81086909e-06,4.15130568,2.10421702,-2.34509865,7.39732039e-01,4.24450703e-05,6.68515049,-2.44938570,-1,-0.962019524762472
5.21587552e+02,6.99932732e+01,-1.81496111e-06,4.15429898,2.09780906,-2.34509866,7.39732039e-01,4.24450703e-05,6.68998593,-2.43477603,-1,-0.9608151431782844
5.35939410e+02,6.99932470e+01,-1.81957066e-06,4.15730014,2.09148279,-2.34509868,7.39732042e-01,4.24450701e-05,6.69493808,-2.41981582,-1,-0.9595627641647241
5.50516137e+02,6.99932204e+01,-1.82475304e-06,4.16030505,2.08519031,-2.34509871,7.39732044e-01,4.24450698e-05,6.69993714,-2.40471597,-1,-0.9582907625199754
5.65643935e+02,6.99931926e+01,-1.83133922e-06,4.16331913,2.07898066,-2.34509875,7.39732046e-01,4.24450696e-05,6.70505116,-2.38927395,-1,-0.9569706730419035
5.80903542e+02,6.99931645e+01,-1.83890604e-06,4.16633746,2.07278313,-2.34509878,7.39732048e-01,4.24450694e-05,6.71019447,-2.37374439,-1,-0.9556390815809248
5.96814191e+02,6.99931350e+01,-1.85131655e-06,4.16937676,2.06664552,-2.34509877,7.39732047e-01,4.24450695e-05,6.71548244,-2.35778252,-1,-0.9542506785672017
6.13012408e+02,6.99931047e+01,-1.86440186e-06,4.17242649,2.06053825,-2.34509878,7.39732046e-01,4.24450695e-05,6.72083231,-2.34163760,-1,-0.9528371816507817
6.29631143e+02,6.99930734e+01,-1.87847393e-06,4.17549148,2.05447535,-2.34509879,7.39732046e-01,4.24450695e-05,6.72627269,-2.32522500,-1,-0.9513869892822451
6.46850205e+02,6.99930407e+01,-1.89216252e-06,4.17857748,2.04849525,-2.34509882,7.39732051e-01,4.24450691e-05,6.73183324,-2.30845944,-1,-0.9498844108786687
6.64225927e+02,6.99930076e+01,-1.90575103e-06,4.18166895,2.04253675,-2.34509886,7.39732056e-01,4.24450686e-05,6.73742515,-2.29160179,-1,-0.9483681619317894
6.82447753e+02,6.99929722e+01,-1.92226750e-06,4.18479423,2.03668368,-2.34509892,7.39732058e-01,4.24450684e-05,6.74318304,-2.27425911,-1,-0.9467780798343252
7.00721969e+02,6.99929367e+01,-1.93896527e-06,4.18792160,2.03083714,-2.34509897,7.39732060e-01,4.24450683e-05,6.74895121,-2.25688641,-1,-0.9451834260544683
7.19735804e+02,6.99928990e+01,-1.96535809e-06,4.19109329,2.02502761,-2.34509896,7.39732062e-01,4.24450680e-05,6.75487451,-2.23905869,-1,-0.9435242312713746
7.38976450e+02,6.99928606e+01,-1.99390403e-06,4.19427865,2.01923010,-2.34509895,7.39732064e-01,4.24450677e-05,6.76084480,-2.22109367,-1,-0.9418452443933171
7.58936001e+02,6.99928200e+01,-2.02396821e-06,4.19750773,2.01347502,-2.34509895,7.39732064e-01,4.24450677e-05,6.76696029,-2.20270795,-1,-0.9401035240674549
7.79287542e+02,6.99927779e+01,-2.05546764e-06,4.20076269,2.00774027,-2.34509896,7.39732064e-01,4.24450678e-05,6.77315486,-2.18409348,-1,-0.9383275977140856
8.00021616e+02,6.99927346e+01,-2.08823171e-06,4.20404269,2.00202584,-2.34509897,7.39732064e-01,4.24450678e-05,6.77942614,-2.16525724,-1,-0.9365182905746748
8.21556826e+02,6.99926885e+01,-2.11871322e-06,4.20736801,1.99637070,-2.34509903,7.39732070e-01,4.24450671e-05,6.78584155,-2.14600997,-1,-0.9346390743047943
8.43382222e+02,6.99926414e+01,-2.15045909e-06,4.21071248,1.99072617,-2.34509910,7.39732076e-01,4.24450665e-05,6.79230911,-2.12661517,-1,-0.9327345356789909
8.65884057e+02,6.99925917e+01,-2.18515228e-06,4.21410161,1.98510635,-2.34509916,7.39732082e-01,4.24450660e-05,6.79889822,-2.10687643,-1,-0.9307709692947221
8.88686368e+02,6.99925406e+01,-2.22636572e-06,4.21751852,1.97947070,-2.34509919,7.39732085e-01,4.24450657e-05,6.80554552,-2.08697238,-1,-0.928781182623402
9.12130448e+02,6.99924867e+01,-2.28150540e-06,4.22099476,1.97380123,-2.34509913,7.39732081e-01,4.24450660e-05,6.81231710,-2.06671526,-1,-0.9267353935845033
9.36146114e+02,6.99924302e+01,-2.33723595e-06,4.22452279,1.96810184,-2.34509910,7.39732079e-01,4.24450662e-05,6.81919215,-2.04616696,-1,-0.924639726522087
9.60588383e+02,6.99923715e+01,-2.39382570e-06,4.22808981,1.96237801,-2.34509907,7.39732078e-01,4.24450663e-05,6.82614315,-2.02540546,-1,-0.9225068330152395
9.85643377e+02,6.99923098e+01,-2.45257905e-06,4.23171355,1.95661431,-2.34509905,7.39732079e-01,4.24450662e-05,6.83320037,-2.00434685,-1,-0.920320471592873
1.01132075e+03,6.99922448e+01,-2.51435708e-06,4.23539641,1.95079875,-2.34509902,7.39732080e-01,4.24450660e-05,6.84036183,-1.98299774,-1,-0.9180797998228093
1.03753378e+03,6.99921769e+01,-2.57356162e-06,4.23912461,1.94494347,-2.34509901,7.39732085e-01,4.24450655e-05,6.84760711,-1.96141896,-1,-0.9157923852836026
1.06417773e+03,6.99921067e+01,-2.62931999e-06,4.24288782,1.93905755,-2.34509902,7.39732094e-01,4.24450647e-05,6.85491824,-1.93966086,-1,-0.9134673675877508
1.09172681e+03,6.99920314e+01,-2.68927475e-06,4.24673185,1.93306403,-2.34509906,7.39732102e-01,4.24450638e-05,6.86235688,-1.91755409,-1,-0.9110633659849691
1.11945979e+03,6.99919549e+01,-2.75337476e-06,4.25059679,1.92703730,-2.34509909,7.39732109e-01,4.24450631e-05,6.86982296,-1.89537191,-1,-0.9086433168083753
1.14799625e+03,6.99918728e+01,-2.84529394e-06,4.25456628,1.92083199,-2.34509902,7.39732103e-01,4.24450637e-05,6.87741345,-1.87284662,-1,-0.9061531539580108
1.17704350e+03,6.99917869e+01,-2.93578091e-06,4.25859974,1.91451443,-2.34509896,7.39732102e-01,4.24450639e-05,6.88507427,-1.85013022,-1,-0.9036184182950993
1.20660757e+03,6.99916972e+01,-3.02583971e-06,4.26269737,1.90808152,-2.34509893,7.39732101e-01,4.24450639e-05,6.89280401,-1.82722705,-1,-0.9010385836267636
1.23672613e+03,6.99916033e+01,-3.11686257e-06,4.26686314,1.90152173,-2.34509890,7.39732098e-01,4.24450642e-05,6.90060436,-1.80413336,-1,-0.8984103627746161
1.26749764e+03,6.99915042e+01,-3.21014694e-06,4.27110953,1.89480254,-2.34509888,7.39732094e-01,4.24450647e-05,6.90848267,-1.78083050,-1,-0.8957251638728736
1.29886963e+03,6.99914000e+01,-3.30604182e-06,4.27543046,1.88792639,-2.34509877,7.39732078e-01,4.24450662e-05,6.91642731,-1.75735354,-1,-0.8929875655849288
1.33080864e+03,6.99912910e+01,-3.40454353e-06,4.27982033,1.88089784,-2.34509868,7.39732061e-01,4.24450679e-05,6.92443086,-1.73372008,-1,-0.8902004877140429
1.36339861e+03,6.99911765e+01,-3.49585827e-06,4.28427183,1.87372001,-2.34509864,7.39732054e-01,4.24450686e-05,6.93249687,-1.70992347,-1,-0.8873566054459378
1.39655200e+03,6.99910573e+01,-3.58221014e-06,4.28877301,1.86641218,-2.34509863,7.39732053e-01,4.24450685e-05,6.94061193,-1.68600000,-1,-0.8844635577398928
1.43038049e+03,6.99909323e+01,-3.67057697e-06,4.29333773,1.85893187,-2.34509863,7.39732055e-01,4.24450684e-05,6.94878015,-1.66193930,-1,-0.8815115991198703
1.46476604e+03,6.99908011e+01,-3.78795089e-06,4.29799083,1.85123502,-2.34509861,7.39732053e-01,4.24450685e-05,6.95699011,-1.63777050,-1,-0.8785110300514103
1.49968335e+03,6.99906642e+01,-3.91359339e-06,4.30272183,1.84334420,-2.34509860,7.39732051e-01,4.24450688e-05,6.96523660,-1.61350747,-1,-0.8754640582757709
1.53518551e+03,6.99905209e+01,-4.03420872e-06,4.30753039,1.83525464,-2.34509858,7.39732049e-01,4.24450689e-05,6.97351918,-1.58915237,-1,-0.8723660510268096
1.57129334e+03,6.99903709e+01,-4.15299151e-06,4.31241209,1.82696902,-2.34509858,7.39732049e-01,4.24450690e-05,6.98183527,-1.56471308,-1,-0.8692151914992692
1.60801794e+03,6.99902140e+01,-4.27130206e-06,4.31736317,1.81848860,-2.34509858,7.39732049e-01,4.24450689e-05,6.99018155,-1.54019743,-1,-0.8660105110793961
1.64537341e+03,6.99900500e+01,-4.38978364e-06,4.32237902,1.80981754,-2.34509857,7.39732049e-01,4.24450689e-05,6.99855547,-1.51561239,-1,-0.8627507793659352
1.68340805e+03,6.99898785e+01,-4.50457123e-06,4.32745125,1.80096586,-2.34509857,7.39732051e-01,4.24450687e-05,7.00695743,-1.49095524,-1,-0.8594317815801207
1.72212677e+03,6.99897002e+01,-4.60431343e-06,4.33255429,1.79198458,-2.34509859,7.39732055e-01,4.24450682e-05,7.01538919,-1.46622005,-1,-0.8560530892630757
1.76172716e+03,6.99895127e+01,-4.70422088e-06,4.33770335,1.78281806,-2.34509860,7.39732060e-01,4.24450676e-05,7.02384967,-1.44141155,-1,-0.8525974602173586
1.80184913e+03,6.99893183e+01,-4.83261284e-06,4.34291449,1.77347359,-2.34509860,7.39732060e-01,4.24450677e-05,7.03231914,-1.41658319,-1,-0.8490963167967157
1.84260563e+03,6.99891158e+01,-4.96675468e-06,4.34818743,1.76394362,-2.34509859,7.39732058e-01,4.24450679e-05,7.04080024,-1.39172748,-1,-0.8455398027017341
1.88405873e+03,6.99889048e+01,-5.09321396e-06,4.35351141,1.75424625,-2.34509859,7.39732058e-01,4.24450679e-05,7.04929566,-1.36683504,-1,-0.8419225015490178
1.92625509e+03,6.99886849e+01,-5.21558973e-06,4.35887597,1.74439940,-2.34509859,7.39732059e-01,4.24450678e-05,7.05780854,-1.34189650,-1,-0.838240341670301
1.96922907e+03,6.99884559e+01,-5.33530869e-06,4.36427406,1.73441597,-2.34509859,7.39732060e-01,4.24450676e-05,7.06634024,-1.31690684,-1,-0.8344903247260723
2.01314674e+03,6.99882168e+01,-5.43886688e-06,4.36968647,1.72432467,-2.34509860,7.39732066e-01,4.24450669e-05,7.07489806,-1.29184398,-1,-0.8306579590329006
