star_age,star_mass,star_mdot,log_Teff,log_R,log_surf_z,surface_h1,surface_he3,log_center_T,log_center_Rho,phase,x
2.47831334e+02,1.09995823e+02,-1.85035396e-05,4.37270445,1.87670892,-2.34509848,7.39732021e-01,4.24450720e-05,7.06465446,-1.44972910,-1,-1.0
2.53305649e+02,1.09995717e+02,-1.86164163e-05,4.37350093,1.87537598,-2.34509848,7.39732021e-01,4.24450720e-05,7.06606694,-1.44563041,-1,-0.9995534178317713
2.58779963e+02,1.09995612e+02,-1.87292930e-05,4.37429741,1.87404304,-2.34509848,7.39732021e-01,4.24450720e-05,7.06747941,-1.44153173,-1,-0.9991068357451203
2.64254278e+02,1.09995506e+02,-1.88421697e-05,4.37509389,1.87271011,-2.34509848,7.39732021e-01,4.24450720e-05,7.06889189,-1.43743304,-1,-0.9986602535768915
2.69728592e+02,1.09995401e+02,-1.89550464e-05,4.37589037,1.87137717,-2.34509848,7.39732021e-01,4.24450720e-05,7.07030437,-1.43333436,-1,-0.9982136714902405
2.75202907e+02,1.09995295e+02,-1.90679231e-05,4.37668685,1.87004423,-2.34509848,7.39732021e-01,4.24450720e-05,7.07171685,-1.42923567,-1,-0.9977670893220117
2.80677222e+02,1.09995190e+02,-1.91807998e-05,4.37748333,1.86871129,-2.34509848,7.39732021e-01,4.24450720e-05,7.07312932,-1.42513699,-1,-0.9973205071537831
2.86258260e+02,1.09995081e+02,-1.92943653e-05,4.37829523,1.86734773,-2.34509848,7.39732021e-01,4.24450720e-05,7.07456590,-1.42096851,-1,-0.9968652187659195
2.92473122e+02,1.09994957e+02,-1.94120217e-05,4.37919869,1.86580230,-2.34509848,7.39732021e-01,4.24450720e-05,7.07614561,-1.41638558,-1,-0.9963582244575536
2.98687984e+02,1.09994833e+02,-1.95296781e-05,4.38010215,1.86425686,-2.34509848,7.39732022e-01,4.24450720e-05,7.07772532,-1.41180265,-1,-0.9958512301491876
3.04902846e+02,1.09994709e+02,-1.96473345e-05,4.38100561,1.86271142,-2.34509848,7.39732022e-01,4.24450720e-05,7.07930503,-1.40721971,-1,-0.9953442358408217
3.11117709e+02,1.09994585e+02,-1.97649910e-05,4.38190907,1.86116599,-2.34509848,7.39732022e-01,4.24450719e-05,7.08088474,-1.40263678,-1,-0.9948372414508779
3.17332571e+02,1.09994461e+02,-1.98826474e-05,4.38281253,1.85962055,-2.34509848,7.39732022e-01,4.24450719e-05,7.08246445,-1.39805385,-1,-0.9943302471425121
3.23812468e+02,1.09994330e+02,-2.00030386e-05,4.38375272,1.85800007,-2.34509848,7.39732022e-01,4.24450719e-05,7.08410136,-1.39330551,-1,-0.9938016318815782
3.30737993e+02,1.09994188e+02,-2.01280281e-05,4.38475464,1.85625339,-2.34509848,7.39732022e-01,4.24450719e-05,7.08583447,-1.38827905,-1,-0.993236663301834
3.37663519e+02,1.09994045e+02,-2.02530175e-05,4.38575657,1.85450672,-2.34509848,7.39732022e-01,4.24450719e-05,7.08756757,-1.38325260,-1,-0.9926716946405121
3.44589044e+02,1.09993903e+02,-2.03780070e-05,4.38675850,1.85276004,-2.34509848,7.39732022e-01,4.24450719e-05,7.08930067,-1.37822615,-1,-0.9921067260607679
3.51514570e+02,1.09993760e+02,-2.05029965e-05,4.38776042,1.85101337,-2.34509848,7.39732022e-01,4.24450719e-05,7.09103378,-1.37319969,-1,-0.9915417573994459
3.58650642e+02,1.09993635e+02,-1.99572801e-05,4.38878838,1.84921322,-2.34509848,7.39732022e-01,4.24450719e-05,7.09281076,-1.36804587,-1,-0.9909596128742595
3.66272293e+02,1.09993551e+02,-1.78647258e-05,4.38987637,1.84728974,-2.34509848,7.39732022e-01,4.24450719e-05,7.09468893,-1.36259827,-1,-0.9903378559185376
3.73893945e+02,1.09993467e+02,-1.57721716e-05,4.39096436,1.84536627,-2.34509848,7.39732022e-01,4.24450719e-05,7.09656710,-1.35715068,-1,-0.989716098881238
3.81515597e+02,1.09993383e+02,-1.36796173e-05,4.39205235,1.84344279,-2.34509848,7.39732022e-01,4.24450719e-05,7.09844528,-1.35170309,-1,-0.9890943418439383
3.89137249e+02,1.09993299e+02,-1.15870631e-05,4.39314034,1.84151932,-2.34509848,7.39732022e-01,4.24450719e-05,7.10032345,-1.34625550,-1,-0.9884725848066387
3.97313085e+02,1.09993269e+02,-9.58590041e-06,4.39430331,1.83943662,-2.34509848,7.39732022e-01,4.24450719e-05,7.10231187,-1.34048928,-1,-0.9878056186989225
4.05686551e+02,1.09993259e+02,-7.61732930e-06,4.39549303,1.83729714,-2.34509848,7.39732023e-01,4.24450719e-05,7.10433960,-1.33460944,-1,-0.9871225303852487
4.14060018e+02,1.09993248e+02,-5.64875819e-06,4.39668274,1.83515765,-2.34509848,7.39732023e-01,4.24450718e-05,7.10636733,-1.32872960,-1,-0.986439441989997
4.22433484e+02,1.09993238e+02,-3.68018708e-06,4.39787245,1.83301817,-2.34509848,7.39732023e-01,4.24450718e-05,7.10839506,-1.32284976,-1,-0.9857563536763231
4.30806950e+02,1.09993228e+02,-1.71161597e-06,4.39906217,1.83087869,-2.34509848,7.39732023e-01,4.24450718e-05,7.11042279,-1.31696991,-1,-0.9850732653626493
4.39854500e+02,1.09993216e+02,-1.23701039e-06,4.40032902,1.82856642,-2.34509848,7.39732023e-01,4.24450718e-05,7.11257503,-1.31072919,-1,-0.9843351868092306
4.49126005e+02,1.09993204e+02,-1.25875426e-06,4.40162151,1.82619673,-2.34509848,7.39732023e-01,4.24450718e-05,7.11476865,-1.30436857,-1,-0.9835788385162216
4.58397510e+02,1.09993191e+02,-1.28049813e-06,4.40291399,1.82382705,-2.34509848,7.39732023e-01,4.24450718e-05,7.11696227,-1.29800795,-1,-0.9828224902232127
4.67669015e+02,1.09993179e+02,-1.30224201e-06,4.40420647,1.82145737,-2.34509848,7.39732023e-01,4.24450718e-05,7.11915589,-1.29164732,-1,-0.9820661419302036
4.76940520e+02,1.09993167e+02,-1.32398588e-06,4.40549896,1.81908768,-2.34509848,7.39732023e-01,4.24450718e-05,7.12134951,-1.28528670,-1,-0.9813097936371946
4.86524152e+02,1.09993153e+02,-1.35032272e-06,4.40682403,1.81664467,-2.34509848,7.39732023e-01,4.24450718e-05,7.12359840,-1.27876485,-1,-0.9805279827333525
4.96696724e+02,1.09993138e+02,-1.38532585e-06,4.40821058,1.81406328,-2.34509848,7.39732024e-01,4.24450718e-05,7.12595158,-1.27193876,-1,-0.9796981274436546
5.06869296e+02,1.09993123e+02,-1.42032899e-06,4.40959714,1.81148189,-2.34509848,7.39732024e-01,4.24450718e-05,7.12830477,-1.26511267,-1,-0.9788682721539566
5.17041869e+02,1.09993108e+02,-1.45533212e-06,4.41098369,1.80890050,-2.34509848,7.39732024e-01,4.24450718e-05,7.13065795,-1.25828659,-1,-0.9780384167826809
5.27369124e+02,1.09993092e+02,-1.49035578e-06,4.41238921,1.80627842,-2.34509848,7.39732024e-01,4.24450718e-05,7.13303804,-1.25138246,-1,-0.977195942805617
5.38320394e+02,1.09993075e+02,-1.52546225e-06,4.41387121,1.80349218,-2.34509848,7.39732024e-01,4.24450718e-05,7.13552664,-1.24416349,-1,-0.9763025631039632
5.49271664e+02,1.09993057e+02,-1.56056871e-06,4.41535322,1.80070594,-2.34509848,7.39732024e-01,4.24450718e-05,7.13801524,-1.23694451,-1,-0.9754091834023095
5.60222934e+02,1.09993039e+02,-1.59567518e-06,4.41683522,1.79791970,-2.34509848,7.39732024e-01,4.24450718e-05,7.14050384,-1.22972554,-1,-0.9745158037006558
5.71633417e+02,1.09993020e+02,-1.63202045e-06,4.41836811,1.79502033,-2.34509848,7.39732024e-01,4.24450718e-05,7.14306798,-1.22228712,-1,-0.9735849624467863
5.83317971e+02,1.09993000e+02,-1.66910506e-06,4.41993137,1.79205345,-2.34509848,7.39732024e-01,4.24450718e-05,7.14567722,-1.21471774,-1,-0.9726317631040181
5.95002525e+02,1.09992980e+02,-1.70618967e-06,4.42149462,1.78908658,-2.34509848,7.39732025e-01,4.24450718e-05,7.14828645,-1.20714837,-1,-0.97167856376125
6.06957127e+02,1.09992959e+02,-1.74421334e-06,4.42308557,1.78605688,-2.34509848,7.39732025e-01,4.24450718e-05,7.15093799,-1.19945571,-1,-0.9707033345167744
6.19355598e+02,1.09992936e+02,-1.78378049e-06,4.42472203,1.78292395,-2.34509848,7.39732025e-01,4.24450719e-05,7.15365908,-1.19156044,-1,-0.969691895448708
6.31754068e+02,1.09992913e+02,-1.82334765e-06,4.42635848,1.77979102,-2.34509848,7.39732025e-01,4.24450719e-05,7.15638017,-1.18366516,-1,-0.9686804564622196
6.44422368e+02,1.09992889e+02,-1.86144332e-06,4.42802237,1.77659625,-2.34509848,7.39732025e-01,4.24450720e-05,7.15914096,-1.17565451,-1,-0.9676470053579678
6.57593094e+02,1.09992863e+02,-1.89679907e-06,4.42973734,1.77328634,-2.34509848,7.39732025e-01,4.24450721e-05,7.16197568,-1.16742902,-1,-0.9665725674832334
6.70763820e+02,1.09992837e+02,-1.93215482e-06,4.43145230,1.76997642,-2.34509848,7.39732025e-01,4.24450722e-05,7.16481039,-1.15920354,-1,-0.965498129608499
6.83934546e+02,1.09992811e+02,-1.96751057e-06,4.43316726,1.76666651,-2.34509848,7.39732026e-01,4.24450723e-05,7.16764510,-1.15097806,-1,-0.9644236917337646
6.97966120e+02,1.09992781e+02,-2.00596558e-06,4.43495246,1.76318919,-2.34509848,7.39732026e-01,4.24450726e-05,7.17059491,-1.14241703,-1,-0.9632790278368968
7.12064596e+02,1.09992751e+02,-2.04466145e-06,4.43674311,1.75969886,-2.34509848,7.39732026e-01,4.24450729e-05,7.17355366,-1.13382992,-1,-0.9621289062270149
7.26163072e+02,1.09992722e+02,-2.08335732e-06,4.43853377,1.75620854,-2.34509848,7.39732026e-01,4.24450732e-05,7.17651241,-1.12524281,-1,-0.9609787846171329
7.40348631e+02,1.09992691e+02,-2.12394023e-06,4.44032956,1.75270481,-2.34509848,7.39732026e-01,4.24450735e-05,7.17948236,-1.11662280,-1,-0.9598215589741517
7.55391077e+02,1.09992657e+02,-2.18309126e-06,4.44217591,1.74906925,-2.34509848,7.39732026e-01,4.24450742e-05,7.18256247,-1.10767901,-1,-0.9585944304384091
7.70433523e+02,1.09992622e+02,-2.24224229e-06,4.44402226,1.74543368,-2.34509849,7.39732027e-01,4.24450749e-05,7.18564259,-1.09873522,-1,-0.9573673019026665
7.85511611e+02,1.09992587e+02,-2.30127104e-06,4.44587171,1.74179125,-2.34509849,7.39732027e-01,4.24450756e-05,7.18872737,-1.08977781,-1,-0.9561372657736196
8.01366257e+02,1.09992549e+02,-2.35763569e-06,4.44778889,1.73799937,-2.34509849,7.39732027e-01,4.24450769e-05,7.19191372,-1.08052368,-1,-0.9548438798089501
8.17220902e+02,1.09992510e+02,-2.41400033e-06,4.44970607,1.73420749,-2.34509849,7.39732027e-01,4.24450783e-05,7.19510006,-1.07126954,-1,-0.9535504939258586
8.33340260e+02,1.09992469e+02,-2.47069323e-06,4.45164293,1.73037006,-2.34509849,7.39732027e-01,4.24450800e-05,7.19831851,-1.06192181,-1,-0.9522355133582268
8.49971135e+02,1.09992426e+02,-2.52802043e-06,4.45361782,1.72644462,-2.34509849,7.39732028e-01,4.24450825e-05,7.20159896,-1.05239320,-1,-0.9508788043970067
8.66602010e+02,1.09992383e+02,-2.58534762e-06,4.45559272,1.72251918,-2.34509849,7.39732028e-01,4.24450851e-05,7.20487942,-1.04286460,-1,-0.9495220954357867
8.83916101e+02,1.09992336e+02,-2.63626130e-06,4.45761980,1.71847745,-2.34509849,7.39732028e-01,4.24450899e-05,7.20823669,-1.03311065,-1,-0.9481096512670296
9.01380808e+02,1.09992288e+02,-2.68576111e-06,4.45965840,1.71441008,-2.34509849,7.39732028e-01,4.24450952e-05,7.21161090,-1.02330703,-1,-0.9466849201875175
9.18845515e+02,1.09992240e+02,-2.73526092e-06,4.46169699,1.71034272,-2.34509849,7.39732028e-01,4.24451006e-05,7.21498510,-1.01350341,-1,-0.9452601891080052
9.37259341e+02,1.09992187e+02,-2.78793448e-06,4.46378709,1.70614983,-2.34509849,7.39732029e-01,4.24451127e-05,7.21845356,-1.00342278,-1,-0.9437580310589221
9.55736056e+02,1.09992133e+02,-2.84081832e-06,4.46588061,1.70194863,-2.34509849,7.39732029e-01,4.24451253e-05,7.22192826,-9.93323797e-01,-1,-0.9422507426682386
9.74212770e+02,1.09992079e+02,-2.89370216e-06,4.46797413,1.69774742,-2.34509849,7.39732029e-01,4.24451379e-05,7.22540297,-9.83224812e-01,-1,-0.9407434543591329
9.93387131e+02,1.09992021e+02,-2.96389507e-06,4.47008845,1.69348152,-2.34509849,7.39732029e-01,4.24451582e-05,7.22894603,-9.72922769e-01,-1,-0.9391792535943284
1.01290599e+03,1.09991960e+02,-3.04263517e-06,4.47221305,1.68918366,-2.34509849,7.39732030e-01,4.24451823e-05,7.23252286,-9.62520455e-01,-1,-0.9375869494661278
1.03246386e+03,1.09991899e+02,-3.12111420e-06,4.47434019,1.68488038,-2.34509849,7.39732030e-01,4.24452071e-05,7.23610364,-9.52106535e-01,-1,-0.9359914629092643
1.05286611e+03,1.09991832e+02,-3.19394337e-06,4.47652238,1.68045961,-2.34509849,7.39732030e-01,4.24452490e-05,7.23977012,-9.41441414e-01,-1,-0.9343270937522565
1.07326836e+03,1.09991765e+02,-3.26677254e-06,4.47870457,1.67603884,-2.34509849,7.39732030e-01,4.24452909e-05,7.24343660,-9.30776294e-01,-1,-0.9326627245952489
1.09425791e+03,1.09991693e+02,-3.33952183e-06,4.48091804,1.67154738,-2.34509849,7.39732031e-01,4.24453518e-05,7.24715767,-9.19949704e-01,-1,-0.9309504448398557
1.11551149e+03,1.09991620e+02,-3.41223519e-06,4.48314557,1.66702413,-2.34509849,7.39732031e-01,4.24454211e-05,7.25090327,-9.09050521e-01,-1,-0.929216626117509
1.13719406e+03,1.09991543e+02,-3.47984043e-06,4.48539840,1.66244829,-2.34509849,7.39732031e-01,4.24455149e-05,7.25468503,-8.98045790e-01,-1,-0.9274478113665545
1.15936026e+03,1.09991463e+02,-3.54168669e-06,4.48767977,1.65781313,-2.34509849,7.39732031e-01,4.24456362e-05,7.25850754,-8.86922062e-01,-1,-0.9256395431800524
1.18152647e+03,1.09991383e+02,-3.60353294e-06,4.48996114,1.65317798,-2.34509849,7.39732032e-01,4.24457575e-05,7.26233006,-8.75798335e-01,-1,-0.9238312741777729
1.20471781e+03,1.09991296e+02,-3.66835962e-06,4.49228010,1.64845407,-2.34509849,7.39732032e-01,4.24459728e-05,7.26623032,-8.64442680e-01,-1,-0.9219393774014036
1.22800320e+03,1.09991207e+02,-3.73345974e-06,4.49460250,1.64372201,-2.34509849,7.39732032e-01,4.24461968e-05,7.27013771,-8.53065747e-01,-1,-0.9200398082399192
1.25128860e+03,1.09991119e+02,-3.79855986e-06,4.49692491,1.63898995,-2.34509849,7.39732032e-01,4.24464209e-05,7.27404511,-8.41688814e-01,-1,-0.9181402382626574
1.27574627e+03,1.09991020e+02,-3.89328989e-06,4.49925885,1.63420162,-2.34509849,7.39732032e-01,4.24467801e-05,7.27803879,-8.30052643e-01,-1,-0.916145037164726
1.30020586e+03,1.09990922e+02,-3.98806850e-06,4.50159282,1.62941320,-2.34509849,7.39732033e-01,4.24471396e-05,7.28203261,-8.18416047e-01,-1,-0.9141496794375609
1.32528212e+03,1.09990818e+02,-4.07713408e-06,4.50395774,1.62456324,-2.34509849,7.39732033e-01,4.24476117e-05,7.28607514,-8.06636064e-01,-1,-0.9121040151742023
1.35071903e+03,1.09990711e+02,-4.16285865e-06,4.50634077,1.61967730,-2.34509849,7.39732033e-01,4.24481496e-05,7.29014616,-7.94772228e-01,-1,-0.9100289299040197
1.37662035e+03,1.09990600e+02,-4.24797755e-06,4.50874215,1.61475212,-2.34509849,7.39732033e-01,4.24488023e-05,7.29425031,-7.82809906e-01,-1,-0.9079159591221801
1.40300646e+03,1.09990484e+02,-4.33246420e-06,4.51116268,1.60978596,-2.34509849,7.39732033e-01,4.24495750e-05,7.29838906,-7.70744777e-01,-1,-0.9057634402746308
1.42985182e+03,1.09990365e+02,-4.41083573e-06,4.51360604,1.60477656,-2.34509850,7.39732033e-01,4.24505157e-05,7.30255773,-7.58591808e-01,-1,-0.9035734568564897
1.45724715e+03,1.09990240e+02,-4.48188425e-06,4.51607672,1.59971535,-2.34509850,7.39732033e-01,4.24516575e-05,7.30676222,-7.46333647e-01,-1,-0.9013386081364687
1.48477279e+03,1.09990115e+02,-4.55322343e-06,4.51855088,1.59464622,-2.34509850,7.39732033e-01,4.24528632e-05,7.31097391,-7.34053925e-01,-1,-0.8990931290229937
1.51342194e+03,1.09989979e+02,-4.62706858e-06,4.52105510,1.58950880,-2.34509850,7.39732033e-01,4.24546198e-05,7.31524764,-7.21588320e-01,-1,-0.8967559965187606
1.54207109e+03,1.09989843e+02,-4.70091374e-06,4.52355933,1.58437138,-2.34509850,7.39732032e-01,4.24563763e-05,7.31952136,-7.09122714e-01,-1,-0.8944188640145276
1.57126476e+03,1.09989701e+02,-4.78781695e-06,4.52606271,1.57922171,-2.34509850,7.39732032e-01,4.24584351e-05,7.32382573,-6.96563651e-01,-1,-0.8920373108070205
1.60125494e+03,1.09989552e+02,-4.89382063e-06,4.52856487,1.57405413,-2.34509850,7.39732031e-01,4.24609359e-05,7.32817494,-6.83867884e-01,-1,-0.8895907801251051
1.63146757e+03,1.09989400e+02,-4.99714271e-06,4.53107713,1.56886780,-2.34509850,7.39732031e-01,4.24636132e-05,7.33253771,-6.71132120e-01,-1,-0.8871261024780766
1.66253709e+03,1.09989240e+02,-5.09013540e-06,4.53362828,1.56360925,-2.34509850,7.39732030e-01,4.24669705e-05,7.33695273,-6.58242291e-01,-1,-0.8845915216935536
1.69382270e+03,1.09989077e+02,-5.18241097e-06,4.53618726,1.55833478,-2.34509850,7.39732029e-01,4.24705407e-05,7.34137943,-6.45317692e-01,-1,-0.8820393127782539
1.72594311e+03,1.09988906e+02,-5.27191634e-06,4.53877654,1.55299879,-2.34509850,7.39732028e-01,4.24749335e-05,7.34585120,-6.32258776e-01,-1,-0.8794190027774235
1.75839548e+03,1.09988731e+02,-5.35694129e-06,4.54138084,1.54763599,-2.34509850,7.39732027e-01,4.24797720e-05,7.35033911,-6.19152648e-01,-1,-0.8767716122347234
1.79162996e+03,1.09988548e+02,-5.43141011e-06,4.54402052,1.54221001,-2.34509850,7.39732025e-01,4.24856607e-05,7.35486501,-6.05935281e-01,-1,-0.874060418936867
1.82498478e+03,1.09988364e+02,-5.50607994e-06,4.54666270,1.53677842,-2.34509850,7.39732024e-01,4.24917559e-05,7.35939584,-5.92703040e-01,-1,-0.8713394085754831
1.85962665e+03,1.09988167e+02,-5.58289972e-06,4.54933169,1.53128682,-2.34509850,7.39732021e-01,4.25000587e-05,7.36397946,-5.79311705e-01,-1,-0.8685134036020576
1.89426853e+03,1.09987970e+02,-5.65971949e-06,4.55200068,1.52579523,-2.34509850,7.39732019e-01,4.25083615e-05,7.36856308,-5.65920371e-01,-1,-0.8656873978128548
1.92973416e+03,1.09987764e+02,-5.75233030e-06,4.55466428,1.52029401,-2.34509850,7.39732016e-01,4.25181826e-05,7.37318055,-5.52424972e-01,-1,-0.8627941923719917
1.96590603e+03,1.09987550e+02,-5.85847911e-06,4.55732327,1.51478454,-2.34509850,7.39732013e-01,4.25293053e-05,7.37782706,-5.38840355e-01,-1,-0.8598433734780319
2.00262984e+03,1.09987329e+02,-5.95688668e-06,4.56000400,1.50923687,-2.34509850,7.39732009e-01,4.25418466e-05,7.38249967,-5.25179271e-01,-1,-0.8568475285740722
2.03999596e+03,1.09987102e+02,-6.04628591e-06,4.56271002,1.50364475,-2.34509850,7.39732005e-01,4.25560385e-05,7.38720266,-5.11429203e-01,-1,-0.8537992854810286
2.07803461e+03,1.09986867e+02,-6.13281379e-06,4.56543480,1.49801562,-2.34509850,7.39732000e-01,4.25722732e-05,7.39193354,-4.97597793e-01,-1,-0.850696178920026
2.11657708e+03,1.09986627e+02,-6.21719067e-06,4.56817365,1.49235878,-2.34509850,7.39731994e-01,4.25900381e-05,7.39668532,-4.83705447e-01,-1,-0.8475519718691913
2.15605992e+03,1.09986376e+02,-6.28872693e-06,4.57095060,1.48663693,-2.34509850,7.39731988e-01,4.26117729e-05,7.40147027,-4.69719209e-01,-1,-0.8443310515723087
2.19582917e+03,1.09986123e+02,-6.35635241e-06,4.57373916,1.48089529,-2.34509851,7.39731980e-01,4.26347167e-05,7.40626532,-4.55704376e-01,-1,-0.8410867665989685
2.23665604e+03,1.09985858e+02,-6.42387511e-06,4.57654312,1.47511871,-2.34509851,7.39731971e-01,4.26633935e-05,7.41109155,-4.41602485e-01,-1,-0.8377562033912261
2.27801057e+03,1.09985587e+02,-6.49134654e-06,4.57935476,1.46932472,-2.34509851,7.39731961e-01,4.26949305e-05,7.41593334,-4.27457161e-01,-1,-0.8343825948806671
2.31980050e+03,1.09985312e+02,-6.56443155e-06,4.58215982,1.46353373,-2.34509851,7.39731951e-01,4.27288594e-05,7.42078863,-4.13271937e-01,-1,-0.8309734674282778
2.36293611e+03,1.09985022e+02,-6.65486588e-06,4.58494456,1.45775204,-2.34509851,7.39731938e-01,4.27701805e-05,7.42568566,-3.98963399e-01,-1,-0.8274545624617807
2.40643371e+03,1.09984728e+02,-6.74004183e-06,4.58774035,1.45195237,-2.34509851,7.39731924e-01,4.28141889e-05,7.43059546,-3.84621187e-01,-1,-0.8239061271743071
2.45091140e+03,1.09984423e+02,-6.81098112e-06,4.59056606,1.44610407,-2.34509851,7.39731907e-01,4.28654730e-05,7.43553984,-3.70187806e-01,-1,-0.8202777383735155
2.49601438e+03,1.09984112e+02,-6.87882738e-06,4.59340358,1.44023331,-2.34509851,7.39731889e-01,4.29221555e-05,7.44050272,-3.55708155e-01,-1,-0.8165983398365337
2.54183098e+03,1.09983793e+02,-6.94314360e-06,4.59625458,1.43433691,-2.34509851,7.39731869e-01,4.29849991e-05,7.44548671,-3.41175699e-01,-1,-0.8128607258028384
2.58867426e+03,1.09983464e+02,-6.99642708e-06,4.59913795,1.42838889,-2.34509851,7.39731844e-01,4.30605360e-05,7.45049420,-3.26596306e-01,-1,-0.8090393575495782
2.63587804e+03,1.09983131e+02,-7.04583659e-06,4.60203268,1.42242274,-2.34509851,7.39731818e-01,4.31405299e-05,7.45550994,-3.12000432e-01,-1,-0.8051885805261529
2.68440926e+03,1.09982784e+02,-7.09402283e-06,4.60493777,1.41643184,-2.34509851,7.39731786e-01,4.32405162e-05,7.46054721,-2.97372041e-01,-1,-0.8012295139663395
2.73343456e+03,1.09982433e+02,-7.14175376e-06,4.60784670,1.41043173,-2.34509851,7.39731751e-01,4.33479440e-05,7.46559248,-2.82731547e-01,-1,-0.797230141483743
2.78332497e+03,1.09982072e+02,-7.19415544e-06,4.61073533,1.40445426,-2.34509852,7.39731712e-01,4.34666418e-05,7.47065482,-2.68057645e-01,-1,-0.7931601952947458
2.83448747e+03,1.09981700e+02,-7.25342523e-06,4.61359408,1.39851008,-2.34509852,7.39731668e-01,4.36019116e-05,7.47574224,-2.53334621e-01,-1,-0.7889864748964854
