star_age,star_mass,star_mdot,log_L,log_Teff,log_R,log_surf_z,v_wind_Km_per_s,log_center_T,log_center_Rho,phase,x
3.87024407e+02,1.39997030e+02,-8.76858082e-06,6.39919667,4.54357973,1.63511603,-2.34509849,1.97688783e+02,7.36457995,-6.32951122e-01,-1,-1.0
3.93557850e+02,1.39996971e+02,-8.80869479e-06,6.39908295,4.54424547,1.63372769,-2.34509849,1.99410182e+02,7.36561338,-6.29947940e-01,-1,-0.9992019384949812
4.00091293e+02,1.39996911e+02,-8.84880876e-06,6.39896924,4.54491121,1.63233936,-2.34509849,2.01131582e+02,7.36664681,-6.26944759e-01,-1,-0.9984038769899624
4.06624736e+02,1.39996852e+02,-8.88892273e-06,6.39885553,4.54557695,1.63095103,-2.34509849,2.02852981e+02,7.36768025,-6.23941577e-01,-1,-0.9976058154849435
4.13158179e+02,1.39996792e+02,-8.92903670e-06,6.39874181,4.54624268,1.62956269,-2.34509849,2.04574380e+02,7.36871368,-6.20938395e-01,-1,-0.9968077539799247
4.19691622e+02,1.39996733e+02,-8.96915067e-06,6.39862810,4.54690842,1.62817436,-2.34509849,2.06295780e+02,7.36974711,-6.17935213e-01,-1,-0.9960096924749058
4.26225065e+02,1.39996673e+02,-9.00926463e-06,6.39851439,4.54757416,1.62678602,-2.34509849,2.08017179e+02,7.37078054,-6.14932032e-01,-1,-0.995211630969887
4.32758508e+02,1.39996614e+02,-9.04937860e-06,6.39840067,4.54823990,1.62539769,-2.34509849,2.09738579e+02,7.37181397,-6.11928850e-01,-1,-0.9944135694648681
4.39291950e+02,1.39996554e+02,-9.08949257e-06,6.39828696,4.54890564,1.62400936,-2.34509849,2.11459978e+02,7.37284740,-6.08925668e-01,-1,-0.9936155080819995
4.46300307e+02,1.39996489e+02,-9.12808818e-06,6.39816476,4.54961285,1.62253383,-2.34509849,2.13237134e+02,7.37394295,-6.05741698e-01,-1,-0.9927594357270209
4.53659379e+02,1.39996421e+02,-9.16556250e-06,6.39803629,4.55035069,1.62099392,-2.34509849,2.15055465e+02,7.37508437,-6.02424218e-01,-1,-0.9918605234573551
4.61018451e+02,1.39996352e+02,-9.20303683e-06,6.39790782,4.55108853,1.61945400,-2.34509849,2.16873796e+02,7.37622580,-5.99106739e-01,-1,-0.9909616111876893
4.68377523e+02,1.39996283e+02,-9.24051115e-06,6.39777935,4.55182637,1.61791409,-2.34509849,2.18692126e+02,7.37736722,-5.95789259e-01,-1,-0.9900626989180235
4.75736595e+02,1.39996214e+02,-9.27798548e-06,6.39765088,4.55256421,1.61637418,-2.34509849,2.20510457e+02,7.37850864,-5.92471780e-01,-1,-0.9891637866483577
4.83095667e+02,1.39996145e+02,-9.31545980e-06,6.39752241,4.55330205,1.61483426,-2.34509849,2.22328788e+02,7.37965006,-5.89154300e-01,-1,-0.9882648743786919
4.90454738e+02,1.39996076e+02,-9.35293413e-06,6.39739394,4.55403989,1.61329435,-2.34509849,2.24147119e+02,7.38079148,-5.85836821e-01,-1,-0.9873659622311765
4.98262249e+02,1.39996002e+02,-9.39039883e-06,6.39725756,4.55481407,1.61167779,-2.34509849,2.26049189e+02,7.38198862,-5.82356906e-01,-1,-0.9864122730386463
5.06406586e+02,1.39995923e+02,-9.42785630e-06,6.39711523,4.55561556,1.61000365,-2.34509849,2.28014156e+02,7.38322761,-5.78754986e-01,-1,-0.9854174404758459
5.14550924e+02,1.39995845e+02,-9.46531378e-06,6.39697289,4.55641704,1.60832952,-2.34509849,2.29979123e+02,7.38446660,-5.75153065e-01,-1,-0.9844226077908953
5.22695262e+02,1.39995767e+02,-9.50277125e-06,6.39683056,4.55721853,1.60665538,-2.34509849,2.31944090e+02,7.38570558,-5.71551144e-01,-1,-0.9834277751059446
5.30839599e+02,1.39995689e+02,-9.54022873e-06,6.39668823,4.55802001,1.60498125,-2.34509849,2.33909057e+02,7.38694457,-5.67949223e-01,-1,-0.9824329425431442
5.38983937e+02,1.39995611e+02,-9.57768620e-06,6.39654590,4.55882150,1.60330711,-2.34509849,2.35874024e+02,7.38818356,-5.64347302e-01,-1,-0.9814381098581935
5.47442289e+02,1.39995529e+02,-9.61301471e-06,6.39640079,4.55964807,1.60158140,-2.34509849,2.37843403e+02,7.38945949,-5.60637929e-01,-1,-0.9804049202938093
5.56432950e+02,1.39995440e+02,-9.64473428e-06,6.39625098,4.56051719,1.59976826,-2.34509849,2.39820259e+02,7.39079803,-5.56746404e-01,-1,-0.9793067090675425
5.65423611e+02,1.39995352e+02,-9.67645385e-06,6.39610118,4.56138631,1.59795512,-2.34509849,2.41797116e+02,7.39213658,-5.52854880e-01,-1,-0.9782084978412757
5.74414272e+02,1.39995264e+02,-9.70817341e-06,6.39595137,4.56225543,1.59614198,-2.34509849,2.43773973e+02,7.39347512,-5.48963356e-01,-1,-0.977110286615009
5.83404932e+02,1.39995176e+02,-9.73989298e-06,6.39580156,4.56312454,1.59432884,-2.34509850,2.45750829e+02,7.39481367,-5.45071831e-01,-1,-0.9760120755108924
5.92395593e+02,1.39995087e+02,-9.77161255e-06,6.39565175,4.56399366,1.59251571,-2.34509850,2.47727686e+02,7.39615221,-5.41180307e-01,-1,-0.9749138642846256
6.01386254e+02,1.39994999e+02,-9.80333211e-06,6.39550195,4.56486278,1.59070257,-2.34509850,2.49704543e+02,7.39749076,-5.37288783e-01,-1,-0.9738156530583588
6.11015470e+02,1.39994903e+02,-9.83601997e-06,6.39534356,4.56577565,1.58879764,-2.34509850,2.51814075e+02,7.39889910,-5.33193809e-01,-1,-0.9726394421978506
6.21017537e+02,1.39994803e+02,-9.86927321e-06,6.39518017,4.56671406,1.58683913,-2.34509850,2.54001077e+02,7.40034819,-5.28980043e-01,-1,-0.9714176875053677
6.31019604e+02,1.39994702e+02,-9.90252644e-06,6.39501678,4.56765247,1.58488061,-2.34509850,2.56188079e+02,7.40179729,-5.24766276e-01,-1,-0.9701959328128849
6.41021670e+02,1.39994601e+02,-9.93577968e-06,6.39485339,4.56859088,1.58292209,-2.34509850,2.58375081e+02,7.40324638,-5.20552510e-01,-1,-0.9689741782425523
6.51023737e+02,1.39994501e+02,-9.96903292e-06,6.39468999,4.56952929,1.58096357,-2.34509850,2.60562083e+02,7.40469548,-5.16338743e-01,-1,-0.9677524235500694
6.61025804e+02,1.39994400e+02,-1.00022862e-05,6.39452660,4.57046770,1.57900506,-2.34509850,2.62749085e+02,7.40614457,-5.12124977e-01,-1,-0.9665306688575865
6.71027870e+02,1.39994300e+02,-1.00355394e-05,6.39436321,4.57140611,1.57704654,-2.34509850,2.64936087e+02,7.40759367,-5.07911210e-01,-1,-0.965308914287254
6.81400299e+02,1.39994194e+02,-1.00739977e-05,6.39419036,4.57236469,1.57504294,-2.34509850,2.67324081e+02,7.40908151,-5.03583787e-01,-1,-0.964041919794696
6.92426720e+02,1.39994080e+02,-1.01216471e-05,6.39400079,4.57335890,1.57295975,-2.34509850,2.70066990e+02,7.41063776,-4.99055666e-01,-1,-0.9626950400349382
7.03453141e+02,1.39993967e+02,-1.01692965e-05,6.39381123,4.57435311,1.57087655,-2.34509850,2.72809899e+02,7.41219401,-4.94527545e-01,-1,-0.9613481602751804
7.14479562e+02,1.39993853e+02,-1.02169459e-05,6.39362166,4.57534732,1.56879335,-2.34509850,2.75552808e+02,7.41375027,-4.89999424e-01,-1,-0.9600012805154227
7.25505983e+02,1.39993739e+02,-1.02645953e-05,6.39343210,4.57634152,1.56671016,-2.34509850,2.78295717e+02,7.41530652,-4.85471303e-01,-1,-0.9586544007556649
7.36532404e+02,1.39993625e+02,-1.03122447e-05,6.39324253,4.57733573,1.56462696,-2.34509850,2.81038626e+02,7.41686277,-4.80943182e-01,-1,-0.957307520995907
7.48238960e+02,1.39993502e+02,-1.03542311e-05,6.39305040,4.57837629,1.56244976,-2.34509850,2.83755477e+02,7.41848991,-4.76210307e-01,-1,-0.9558775625957271
7.60162835e+02,1.39993377e+02,-1.03944080e-05,6.39285744,4.57943167,1.56024253,-2.34509850,2.86464003e+02,7.42013971,-4.71412009e-01,-1,-0.9544210586317136
7.72086710e+02,1.39993252e+02,-1.04345849e-05,6.39266449,4.58048705,1.55803531,-2.34509850,2.89172529e+02,7.42178950,-4.66613711e-01,-1,-0.9529645546677
7.84010585e+02,1.39993126e+02,-1.04747618e-05,6.39247153,4.58154242,1.55582808,-2.34509850,2.91881054e+02,7.42343930,-4.61815413e-01,-1,-0.9515080507036865
7.95934461e+02,1.39993001e+02,-1.05149386e-05,6.39227858,4.58259780,1.55362085,-2.34509850,2.94589580e+02,7.42508909,-4.57017115e-01,-1,-0.9500515466175227
8.08627449e+02,1.39992865e+02,-1.05529254e-05,6.39208000,4.58369988,1.55131739,-2.34509850,2.97368749e+02,7.42681397,-4.52000438e-01,-1,-0.9485010953307409
8.21408585e+02,1.39992729e+02,-1.05906610e-05,6.39188077,4.58480732,1.54900290,-2.34509850,3.00156013e+02,7.42854746,-4.46958732e-01,-1,-0.9469398767462961
8.34189721e+02,1.39992592e+02,-1.06283967e-05,6.39168154,4.58591476,1.54668841,-2.34509850,3.02943278e+02,7.43028095,-4.41917027e-01,-1,-0.9453786581618514
8.46970857e+02,1.39992455e+02,-1.06661324e-05,6.39148232,4.58702220,1.54437392,-2.34509850,3.05730543e+02,7.43201443,-4.36875322e-01,-1,-0.9438174395774066
8.60159875e+02,1.39992314e+02,-1.07004895e-05,6.39128371,4.58815468,1.54200964,-2.34509850,3.08485119e+02,7.43378536,-4.31726202e-01,-1,-0.9422063981166025
8.73865969e+02,1.39992165e+02,-1.07305635e-05,6.39108589,4.58931892,1.53958225,-2.34509850,3.11198257e+02,7.43560374,-4.26440910e-01,-1,-0.9405321957082292
8.87572064e+02,1.39992017e+02,-1.07606374e-05,6.39088807,4.59048317,1.53715485,-2.34509850,3.13911395e+02,7.43742212,-4.21155619e-01,-1,-0.9388579931777057
9.01278159e+02,1.39991868e+02,-1.07907114e-05,6.39069025,4.59164741,1.53472746,-2.34509850,3.16624532e+02,7.43924050,-4.15870328e-01,-1,-0.9371837906471822
9.14984253e+02,1.39991719e+02,-1.08207853e-05,6.39049243,4.59281165,1.53230006,-2.34509850,3.19337670e+02,7.44105888,-4.10585037e-01,-1,-0.9355095882388089
9.29194851e+02,1.39991564e+02,-1.08506662e-05,6.39029070,4.59400051,1.52982149,-2.34509850,3.22113376e+02,7.44291928,-4.05179814e-01,-1,-0.9337737605554424
9.44011199e+02,1.39991401e+02,-1.08803153e-05,6.39008427,4.59521892,1.52728146,-2.34509850,3.24964206e+02,7.44483013,-3.99630592e-01,-1,-0.9319639403758275
9.58827547e+02,1.39991238e+02,-1.09099643e-05,6.38987784,4.59643732,1.52474143,-2.34509850,3.27815036e+02,7.44674099,-3.94081370e-01,-1,-0.9301541201962128
9.73643894e+02,1.39991075e+02,-1.09396134e-05,6.38967141,4.59765573,1.52220140,-2.34509850,3.30665867e+02,7.44865184,-3.88532147e-01,-1,-0.9283443001387482
9.88460242e+02,1.39990912e+02,-1.09692625e-05,6.38946499,4.59887414,1.51966137,-2.34509850,3.33516697e+02,7.45056270,-3.82982925e-01,-1,-0.9265344799591335
1.00327659e+03,1.39990749e+02,-1.09989115e-05,6.38925856,4.60009255,1.51712134,-2.34509850,3.36367527e+02,7.45247355,-3.77433702e-01,-1,-0.9247246597795187
1.01913333e+03,1.39990572e+02,-1.10364938e-05,6.38902715,4.60134671,1.51449731,-2.34509850,3.39593139e+02,7.45446704,-3.71648801e-01,-1,-0.9227877554873879
1.03508187e+03,1.39990394e+02,-1.10747760e-05,6.38879354,4.60260403,1.51186587,-2.34509850,3.42851819e+02,7.45646783,-3.65843104e-01,-1,-0.9208396378049878
1.05103041e+03,1.39990216e+02,-1.11130582e-05,6.38855994,4.60386135,1.50923442,-2.34509850,3.46110499e+02,7.45846861,-3.60037407e-01,-1,-0.9188915201225877
1.06697894e+03,1.39990038e+02,-1.11513404e-05,6.38832633,4.60511867,1.50660298,-2.34509850,3.49369179e+02,7.46046940,-3.54231710e-01,-1,-0.9169434036616898
1.08344896e+03,1.39989853e+02,-1.11845632e-05,6.38809369,4.60640229,1.50391942,-2.34509851,3.52540849e+02,7.46251187,-3.48309077e-01,-1,-0.9149315870821482
1.10038754e+03,1.39989662e+02,-1.12132398e-05,6.38786193,4.60770954,1.50118903,-2.34509851,3.55634335e+02,7.46459181,-3.42281371e-01,-1,-0.9128625357951496
1.11732612e+03,1.39989471e+02,-1.12419164e-05,6.38763017,4.60901680,1.49845864,-2.34509851,3.58727822e+02,7.46667174,-3.36253664e-01,-1,-0.910793484508151
1.13426470e+03,1.39989280e+02,-1.12705930e-05,6.38739841,4.61032406,1.49572824,-2.34509851,3.61821309e+02,7.46875168,-3.30225958e-01,-1,-0.9087244332211524
1.15180604e+03,1.39989081e+02,-1.12965738e-05,6.38716461,4.61165739,1.49294467,-2.34509851,3.64900305e+02,7.47087571,-3.24076431e-01,-1,-0.9065817546670658
1.16969696e+03,1.39988878e+02,-1.13209909e-05,6.38692963,4.61300586,1.49013026,-2.34509851,3.67970896e+02,7.47302532,-3.17856248e-01,-1,-0.9043963748387929
1.18758789e+03,1.39988674e+02,-1.13454080e-05,6.38669465,4.61435432,1.48731584,-2.34509851,3.71041488e+02,7.47517492,-3.11636065e-01,-1,-0.9022109937890176
1.20547882e+03,1.39988471e+02,-1.13698251e-05,6.38645968,4.61570278,1.48450142,-2.34509851,3.74112080e+02,7.47732453,-3.05415882e-01,-1,-0.9000256127392423
1.22439766e+03,1.39988254e+02,-1.13871396e-05,6.38623042,4.61709718,1.48159801,-2.34509851,3.77061773e+02,7.47954214,-2.99014751e-01,-1,-0.897714672256007
1.24331799e+03,1.39988038e+02,-1.14044438e-05,6.38600117,4.61849163,1.47869447,-2.34509851,3.80011294e+02,7.48175984,-2.92613360e-01,-1,-0.8954035497689428
1.26223831e+03,1.39987821e+02,-1.14217481e-05,6.38577192,4.61988609,1.47579093,-2.34509851,3.82960814e+02,7.48397755,-2.86211969e-01,-1,-0.8930924285033806
1.28115864e+03,1.39987605e+02,-1.14390524e-05,6.38554267,4.62128055,1.47288739,-2.34509851,3.85910334e+02,7.48619525,-2.79810578e-01,-1,-0.8907813060163162
1.30116909e+03,1.39987375e+02,-1.14543758e-05,6.38530689,4.62270867,1.46991325,-2.34509851,3.88892899e+02,7.48847458,-2.73253370e-01,-1,-0.888337025130556
1.32133580e+03,1.39987143e+02,-1.14694153e-05,6.38507017,4.62414163,1.46692899,-2.34509851,3.91880201e+02,7.49076274,-2.66673828e-01,-1,-0.885873657051294
1.34150251e+03,1.39986910e+02,-1.14844548e-05,6.38483345,4.62557458,1.46394472,-2.34509851,3.94867503e+02,7.49305090,-2.60094285e-01,-1,-0.8834102889720319
1.36166923e+03,1.39986678e+02,-1.14994943e-05,6.38459673,4.62700753,1.46096046,-2.34509851,3.97854805e+02,7.49533906,-2.53514743e-01,-1,-0.8809469196712676
1.38213406e+03,1.39986442e+02,-1.15144911e-05,6.38435300,4.62844523,1.45796319,-2.34509851,4.00865446e+02,7.49764284,-2.46896664e-01,-1,-0.8784471361681813
1.40358713e+03,1.39986194e+02,-1.15293467e-05,6.38408603,4.62989869,1.45492279,-2.34509851,4.03953453e+02,7.49999842,-2.40150845e-01,-1,-0.875826638930894
1.42504020e+03,1.39985946e+02,-1.15442022e-05,6.38381905,4.63135214,1.45188240,-2.34509851,4.07041460e+02,7.50235401,-2.33405026e-01,-1,-0.8732061416936066
1.44649328e+03,1.39985698e+02,-1.15590578e-05,6.38355207,4.63280559,1.44884201,-2.34509851,4.10129466e+02,7.50470959,-2.26659207e-01,-1,-0.870585643234817
1.46848839e+03,1.39985443e+02,-1.15691743e-05,6.38328722,4.63427696,1.44576684,-2.34509851,4.13097296e+02,7.50709267,-2.19851513e-01,-1,-0.8678989356918485
1.49106499e+03,1.39985182e+02,-1.15742070e-05,6.38302464,4.63576756,1.44265436,-2.34509851,4.15936206e+02,7.50950524,-2.12977442e-01,-1,-0.8651411990169884
1.51364158e+03,1.39984920e+02,-1.15792398e-05,6.38276206,4.63725815,1.43954188,-2.34509852,4.18775116e+02,7.51191781,-2.06103372e-01,-1,-0.8623834635636304
1.53633880e+03,1.39984657e+02,-1.15837427e-05,6.38249916,4.63875177,1.43642320,-2.34509852,4.21603945e+02,7.51433530,-1.99220124e-01,-1,-0.8596109931291377
1.56001061e+03,1.39984383e+02,-1.15839646e-05,6.38223366,4.64026977,1.43325444,-2.34509852,4.24351325e+02,7.51679252,-1.92262725e-01,-1,-0.8567194763109578
1.58368241e+03,1.39984109e+02,-1.15841864e-05,6.38196816,4.64178777,1.43008568,-2.34509852,4.27098706e+02,7.51924975,-1.85305325e-01,-1,-0.85382796071428
1.60735421e+03,1.39983835e+02,-1.15844083e-05,6.38170266,4.64330578,1.42691693,-2.34509852,4.29846087e+02,7.52170697,-1.78347926e-01,-1,-0.8509364451176024
1.63212748e+03,1.39983548e+02,-1.15809657e-05,6.38144282,4.64485147,1.42369562,-2.34509852,4.32532608e+02,7.52419530,-1.71357970e-01,-1,-0.8479103847172226
1.65699257e+03,1.39983260e+02,-1.15772177e-05,6.38118346,4.64639947,1.42046994,-2.34509852,4.35214057e+02,7.52668622,-1.64365300e-01,-1,-0.8448731084835693
1.68185765e+03,1.39982973e+02,-1.15734696e-05,6.38092409,4.64794747,1.41724425,-2.34509852,4.37895505e+02,7.52917715,-1.57372630e-01,-1,-0.8418358334714182
1.70713592e+03,1.39982680e+02,-1.15687587e-05,6.38066176,4.64949990,1.41400823,-2.34509852,4.40562293e+02,7.53167391,-1.50383932e-01,-1,-0.8387480872095356
1.73346572e+03,1.39982377e+02,-1.15615971e-05,6.38039189,4.65106359,1.41074591,-2.34509852,4.43191772e+02,7.53418555,-1.43405345e-01,-1,-0.8355318963259778
1.75979553e+03,1.39982073e+02,-1.15544356e-05,6.38012203,4.65262729,1.40748360,-2.34509852,4.45821250e+02,7.53669720,-1.36426759e-01,-1,-0.8323157042209177
1.78612533e+03,1.39981769e+02,-1.15472741e-05,6.37985217,4.65419098,1.40422128,-2.34509852,4.48450728e+02,7.53920884,-1.29448172e-01,-1,-0.8290995133373599
1.81269445e+03,1.39981462e+02,-1.15385338e-05,6.37957680,4.65575412,1.40095732,-2.34509852,4.51026510e+02,7.54172305,-1.22470808e-01,-1,-0.8258540894629607
1.84055845e+03,1.39981142e+02,-1.15212516e-05,6.37927165,4.65731427,1.39768444,-2.34509852,4.53311751e+02,7.54425115,-1.15500065e-01,-1,-0.8224504957106551
1.86842245e+03,1.39980822e+02,-1.15039694e-05,6.37896649,4.65887442,1.39441157,-2.34509853,4.55596992e+02,7.54677926,-1.08529323e-01,-1,-0.8190469019583495
1.89628646e+03,1.39980503e+02,-1.14866871e-05,6.37866134,4.66043456,1.39113869,-2.34509853,4.57882233e+02,7.54930737,-1.01558580e-01,-1,-0.8156433069845417
1.92518108e+03,1.39980172e+02,-1.14638400e-05,6.37835885,4.66200938,1.38783782,-2.34509853,4.59972102e+02,7.55184276,-9.45939446e-02,-1,-0.8121138227716777
1.95439432e+03,1.39979839e+02,-1.14392725e-05,6.37805718,4.66358873,1.38452828,-2.34509853,4.62001570e+02,7.55438040,-8.76311979e-02,-1,-0.8085454190554631
1.98360757e+03,1.39979506e+02,-1.14147049e-05,6.37775551,4.66516808,1.38121874,-2.34509853,4.64031038e+02,7.55691805,-8.06684512e-02,-1,-0.8049770141177462
2.01378132e+03,1.39979164e+02,-1.13906408e-05,6.37746022,4.66676120,1.37788487,-2.34509853,4.66093896e+02,7.55945528,-7.37100090e-02,-1,-0.8012912838929532
2.04443912e+03,1.39978816e+02,-1.13668304e-05,6.37716814,4.66836125,1.37453873,-2.34509853,4.68173582e+02,7.56199230,-6.67537360e-02,-1,-0.7975464268537832
2.07509692e+03,1.39978469e+02,-1.13430199e-05,6.37687606,4.66996130,1.37119259,-2.34509853,4.70253267e+02,7.56452933,-5.97974630e-02,-1,-0.793801569814613
2.10596873e+03,1.39978120e+02,-1.13187805e-05,6.37658312,4.67156235,1.36784402,-2.34509853,4.72316590e+02,7.56706696,-5.28330637e-02,-1,-0.7900305714066901
2.13838926e+03,1.39977757e+02,-1.12914369e-05,6.37628398,4.67317065,1.36447784,-2.34509853,4.74261501e+02,7.56960899,-4.58098571e-02,-1,-0.7860703965088134
2.17080979e+03,1.39977393e+02,-1.12640932e-05,6.37598485,4.67477896,1.36111166,-2.34509854,4.76206412e+02,7.57215102,-3.87866505e-02,-1,-0.7821102216109368
2.20323031e+03,1.39977030e+02,-1.12367495e-05,6.37568571,4.67638727,1.35774548,-2.34509854,4.78151322e+02,7.57469304,-3.17634440e-02,-1,-0.7781500479345622
2.23583431e+03,1.39976665e+02,-1.12076818e-05,6.37538360,4.67799506,1.35437884,-2.34509854,4.80019526e+02,7.57723789,-2.47237103e-02,-1,-0.7741674621356758
2.27008219e+03,1.39976286e+02,-1.11631660e-05,6.37505479,4.67959824,1.35100806,-2.34509854,4.81200423e+02,7.57980805,-1.75358926e-02,-1,-0.7699840760318245
2.30433007e+03,1.39975907e+02,-1.11186502e-05,6.37472598,4.68120143,1.34763729,-2.34509854,4.82381321e+02,7.58237820,-1.03480749e-02,-1,-0.7658006899279732
2.33857795e+03,1.39975528e+02,-1.10741345e-05,6.37439717,4.68280461,1.34426651,-2.34509854,4.83562218e+02,7.58494835,-3.16025723e-03,-1,-0.761617303824122
2.37407587e+03,1.39975139e+02,-1.10269930e-05,6.37407953,4.68442895,1.34085901,-2.34509854,4.84622313e+02,7.58755054,4.20398831e-03,-1,-0.7572812250582648
2.40989507e+03,1.39974748e+02,-1.09791767e-05,6.37376476,4.68605873,1.33744207,-2.34509854,4.85651360e+02,7.59016097,1.16135779e-02,-1,-0.7529059018694697
2.44571427e+03,1.39974357e+02,-1.09313604e-05,6.37344998,4.68768850,1.33402514,-2.34509855,4.86680408e+02,7.59277140,1.90231674e-02,-1,-0.7485305786806746
2.48282345e+03,1.39973956e+02,-1.08883737e-05,6.37315117,4.68934161,1.33056951,-2.34509855,4.87930565e+02,7.59541106,2.65782208e-02,-1,-0.7439976841500551
2.52031782e+03,1.39973552e+02,-1.08468292e-05,6.37285711,4.69100169,1.32710232,-2.34509855,4.89246746e+02,7.59805946,3.41767092e-02,-1,-0.7394177385758864
2.55781219e+03,1.39973148e+02,-1.08052847e-05,6.37256306,4.69266177,1.32363514,-2.34509855,4.90562926e+02,7.60070785,4.17751977e-02,-1,-0.7348377930017178
2.59593750e+03,1.39972739e+02,-1.07628775e-05,6.37226878,4.69432476,1.32016202,-2.34509855,4.91841451e+02,7.60336416,4.93913767e-02,-1,-0.7301807779672391
2.63552321e+03,1.39972319e+02,-1.07184736e-05,6.37197399,4.69599448,1.31667519,-2.34509855,4.93032821e+02,7.60603880,5.70485020e-02,-1,-0.7253453747503076
2.67510891e+03,1.39971900e+02,-1.06740696e-05,6.37167919,4.69766420,1.31318835,-2.34509855,4.94224191e+02,7.60871345,6.47056273e-02,-1,-0.7205099727548783
