star_age,star_mass,star_mdot,log_Teff,log_R,log_surf_z,surface_h1,surface_he3,log_center_T,log_center_Rho,phase,x
3.87024407e+02,2.99988264e+02,-3.20262500e-05,4.64561703,1.63498748,-2.34509850,7.39732037e-01,4.24538281e-05,7.44610879,-6.71450243e-01,-1,-1.0
3.92589759e+02,2.99988084e+02,-3.20522354e-05,4.64607057,1.63412476,-2.34509850,7.39732037e-01,4.24544036e-05,7.44697873,-6.68837672e-01,-1,-0.9988426132360398
3.98155111e+02,2.99987903e+02,-3.20782209e-05,4.64652411,1.63326205,-2.34509850,7.39732036e-01,4.24549792e-05,7.44784868,-6.66225101e-01,-1,-0.9976852264720798
4.03720462e+02,2.99987723e+02,-3.21042064e-05,4.64697765,1.63239933,-2.34509850,7.39732036e-01,4.24555548e-05,7.44871862,-6.63612530e-01,-1,-0.9965278399160826
4.09285814e+02,2.99987543e+02,-3.21301919e-05,4.64743119,1.63153662,-2.34509850,7.39732036e-01,4.24561304e-05,7.44958856,-6.60999958e-01,-1,-0.9953704531521225
4.14851165e+02,2.99987363e+02,-3.21561773e-05,4.64788474,1.63067390,-2.34509850,7.39732036e-01,4.24567060e-05,7.45045851,-6.58387387e-01,-1,-0.9942130665961253
4.20416517e+02,2.99987182e+02,-3.21821628e-05,4.64833828,1.62981119,-2.34509850,7.39732036e-01,4.24572816e-05,7.45132845,-6.55774816e-01,-1,-0.9930556798321651
4.25981869e+02,2.99987002e+02,-3.22081483e-05,4.64879182,1.62894847,-2.34509850,7.39732036e-01,4.24578571e-05,7.45219839,-6.53162245e-01,-1,-0.991898293068205
4.31547220e+02,2.99986822e+02,-3.22341337e-05,4.64924536,1.62808576,-2.34509850,7.39732036e-01,4.24584327e-05,7.45306833,-6.50549673e-01,-1,-0.9907409065122078
4.37112572e+02,2.99986642e+02,-3.22601192e-05,4.64969890,1.62722304,-2.34509850,7.39732036e-01,4.24590083e-05,7.45393828,-6.47937102e-01,-1,-0.9895835197482478
4.42677923e+02,2.99986461e+02,-3.22861047e-05,4.65015244,1.62636033,-2.34509850,7.39732036e-01,4.24595839e-05,7.45480822,-6.45324531e-01,-1,-0.9884261331922505
4.48243275e+02,2.99986281e+02,-3.23120901e-05,4.65060598,1.62549761,-2.34509850,7.39732036e-01,4.24601595e-05,7.45567816,-6.42711960e-01,-1,-0.9872687464282904
4.53808626e+02,2.99986101e+02,-3.23380756e-05,4.65105953,1.62463490,-2.34509850,7.39732036e-01,4.24607351e-05,7.45654811,-6.40099389e-01,-1,-0.9861113598722933
4.59373978e+02,2.99985921e+02,-3.23640611e-05,4.65151307,1.62377218,-2.34509850,7.39732036e-01,4.24613107e-05,7.45741805,-6.37486817e-01,-1,-0.9849539731083331
4.65026216e+02,2.99985737e+02,-3.23903334e-05,4.65197232,1.62289736,-2.34509850,7.39732036e-01,4.24619169e-05,7.45829896,-6.34841218e-01,-1,-0.9837785172794921
4.71539659e+02,2.99985525e+02,-3.24194490e-05,4.65248823,1.62190254,-2.34509850,7.39732035e-01,4.24628275e-05,7.45928857,-6.31868256e-01,-1,-0.9824239627578717
4.78053102e+02,2.99985312e+02,-3.24485646e-05,4.65300414,1.62090771,-2.34509850,7.39732035e-01,4.24637380e-05,7.46027819,-6.28895294e-01,-1,-0.9810694082362514
4.84566544e+02,2.99985099e+02,-3.24776802e-05,4.65352004,1.61991289,-2.34509850,7.39732035e-01,4.24646486e-05,7.46126780,-6.25922332e-01,-1,-0.9797148539225939
4.91079987e+02,2.99984886e+02,-3.25067957e-05,4.65403595,1.61891806,-2.34509850,7.39732035e-01,4.24655591e-05,7.46225742,-6.22949370e-01,-1,-0.9783602994009737
4.97593429e+02,2.99984673e+02,-3.25359113e-05,4.65455186,1.61792323,-2.34509850,7.39732035e-01,4.24664697e-05,7.46324703,-6.19976408e-01,-1,-0.9770057450873163
5.04106872e+02,2.99984460e+02,-3.25650269e-05,4.65506776,1.61692841,-2.34509850,7.39732034e-01,4.24673802e-05,7.46423665,-6.17003445e-01,-1,-0.9756511905656959
5.10620314e+02,2.99984247e+02,-3.25941425e-05,4.65558367,1.61593358,-2.34509850,7.39732034e-01,4.24682907e-05,7.46522626,-6.14030483e-01,-1,-0.9742966362520386
5.17133757e+02,2.99984034e+02,-3.26232581e-05,4.65609958,1.61493876,-2.34509850,7.39732034e-01,4.24692013e-05,7.46621588,-6.11057521e-01,-1,-0.9729420817304183
5.23647199e+02,2.99983821e+02,-3.26523737e-05,4.65661548,1.61394393,-2.34509850,7.39732034e-01,4.24701118e-05,7.46720549,-6.08084559e-01,-1,-0.9715875274167609
5.30160642e+02,2.99983608e+02,-3.26814892e-05,4.65713139,1.61294911,-2.34509850,7.39732034e-01,4.24710224e-05,7.46819511,-6.05111597e-01,-1,-0.9702329728951405
5.37146538e+02,2.99983379e+02,-3.27035489e-05,4.65768038,1.61188616,-2.34509850,7.39732033e-01,4.24721307e-05,7.46924323,-6.01963316e-01,-1,-0.9687801656756149
5.44521060e+02,2.99983137e+02,-3.27198046e-05,4.65825659,1.61076719,-2.34509850,7.39732033e-01,4.24734018e-05,7.47033948,-5.98670824e-01,-1,-0.9672465386645412
5.51895582e+02,2.99982895e+02,-3.27360603e-05,4.65883280,1.60964821,-2.34509850,7.39732033e-01,4.24746728e-05,7.47143572,-5.95378331e-01,-1,-0.9657129116534676
5.59270105e+02,2.99982652e+02,-3.27523160e-05,4.65940901,1.60852923,-2.34509850,7.39732032e-01,4.24759439e-05,7.47253197,-5.92085839e-01,-1,-0.964179284434431
5.66644627e+02,2.99982410e+02,-3.27685718e-05,4.65998522,1.60741026,-2.34509850,7.39732032e-01,4.24772150e-05,7.47362821,-5.88793347e-01,-1,-0.9626456574233574
5.74019149e+02,2.99982168e+02,-3.27848275e-05,4.66056143,1.60629128,-2.34509850,7.39732032e-01,4.24784860e-05,7.47472446,-5.85500854e-01,-1,-0.9611120304122838
5.81393672e+02,2.99981926e+02,-3.28010832e-05,4.66113763,1.60517231,-2.34509850,7.39732032e-01,4.24797571e-05,7.47582070,-5.82208362e-01,-1,-0.9595784031932473
5.88768194e+02,2.99981684e+02,-3.28173389e-05,4.66171384,1.60405333,-2.34509850,7.39732031e-01,4.24810281e-05,7.47691695,-5.78915870e-01,-1,-0.9580447761821737
5.96142716e+02,2.99981442e+02,-3.28335946e-05,4.66229005,1.60293436,-2.34509850,7.39732031e-01,4.24822992e-05,7.47801320,-5.75623377e-01,-1,-0.9565111491711
6.04084049e+02,2.99981180e+02,-3.28449657e-05,4.66290265,1.60173990,-2.34509851,7.39732031e-01,4.24838559e-05,7.47917510,-5.72133649e-01,-1,-0.9548596464984209
6.12287444e+02,2.99980910e+02,-3.28540783e-05,4.66353207,1.60051055,-2.34509851,7.39732030e-01,4.24855445e-05,7.48036737,-5.68552729e-01,-1,-0.9531536446511817
6.20490840e+02,2.99980640e+02,-3.28631910e-05,4.66416149,1.59928119,-2.34509851,7.39732030e-01,4.24872332e-05,7.48155964,-5.64971810e-01,-1,-0.9514476425959796
6.28694236e+02,2.99980370e+02,-3.28723037e-05,4.66479091,1.59805184,-2.34509851,7.39732029e-01,4.24889219e-05,7.48275191,-5.61390890e-01,-1,-0.9497416405407775
6.36897631e+02,2.99980100e+02,-3.28814163e-05,4.66542033,1.59682248,-2.34509851,7.39732029e-01,4.24906106e-05,7.48394417,-5.57809970e-01,-1,-0.9480356386935382
6.45101027e+02,2.99979831e+02,-3.28905290e-05,4.66604975,1.59559313,-2.34509851,7.39732028e-01,4.24922993e-05,7.48513644,-5.54229051e-01,-1,-0.9463296366383361
6.53304422e+02,2.99979561e+02,-3.28996417e-05,4.66667917,1.59436378,-2.34509851,7.39732028e-01,4.24939880e-05,7.48632871,-5.50648131e-01,-1,-0.9446236347910969
6.61507818e+02,2.99979291e+02,-3.29087543e-05,4.66730859,1.59313442,-2.34509851,7.39732028e-01,4.24956767e-05,7.48752097,-5.47067211e-01,-1,-0.9429176327358948
6.70451565e+02,2.99978996e+02,-3.29112089e-05,4.66798502,1.59180897,-2.34509851,7.39732027e-01,4.24978865e-05,7.48879359,-5.43245820e-01,-1,-0.9410576651367191
6.79551068e+02,2.99978697e+02,-3.29122627e-05,4.66867135,1.59046331,-2.34509851,7.39732026e-01,4.25002060e-05,7.49008311,-5.39373838e-01,-1,-0.9391653060674606
6.88650571e+02,2.99978397e+02,-3.29133165e-05,4.66935767,1.58911765,-2.34509851,7.39732026e-01,4.25025255e-05,7.49137263,-5.35501856e-01,-1,-0.9372729469982022
6.97750074e+02,2.99978098e+02,-3.29143702e-05,4.67004399,1.58777198,-2.34509851,7.39732025e-01,4.25048449e-05,7.49266216,-5.31629874e-01,-1,-0.9353805879289439
7.06849577e+02,2.99977798e+02,-3.29154240e-05,4.67073031,1.58642632,-2.34509851,7.39732025e-01,4.25071644e-05,7.49395168,-5.27757891e-01,-1,-0.9334882288596855
7.15949080e+02,2.99977498e+02,-3.29164778e-05,4.67141663,1.58508066,-2.34509851,7.39732024e-01,4.25094839e-05,7.49524120,-5.23885909e-01,-1,-0.9315958697904271
7.25048583e+02,2.99977199e+02,-3.29175316e-05,4.67210296,1.58373500,-2.34509851,7.39732023e-01,4.25118033e-05,7.49653072,-5.20013927e-01,-1,-0.9297035107211686
7.34148086e+02,2.99976899e+02,-3.29185854e-05,4.67278928,1.58238933,-2.34509851,7.39732023e-01,4.25141228e-05,7.49782024,-5.16141945e-01,-1,-0.9278111516519103
7.43596523e+02,2.99976588e+02,-3.29176657e-05,4.67349396,1.58100521,-2.34509851,7.39732022e-01,4.25168207e-05,7.49914309,-5.12169882e-01,-1,-0.9258462272546913
7.53767742e+02,2.99976254e+02,-3.29126579e-05,4.67423669,1.57954143,-2.34509851,7.39732021e-01,4.25203024e-05,7.50053497,-5.07990509e-01,-1,-0.9237309910137601
7.63938961e+02,2.99975920e+02,-3.29076501e-05,4.67497942,1.57807765,-2.34509851,7.39732020e-01,4.25237841e-05,7.50192685,-5.03811137e-01,-1,-0.9216157547728288
7.74110181e+02,2.99975585e+02,-3.29026424e-05,4.67572215,1.57661387,-2.34509851,7.39732019e-01,4.25272658e-05,7.50331873,-4.99631765e-01,-1,-0.9195005183239345
7.84281400e+02,2.99975251e+02,-3.28976346e-05,4.67646488,1.57515008,-2.34509851,7.39732018e-01,4.25307475e-05,7.50471061,-4.95452393e-01,-1,-0.9173852820830033
7.94452619e+02,2.99974917e+02,-3.28926268e-05,4.67720761,1.57368630,-2.34509851,7.39732017e-01,4.25342292e-05,7.50610248,-4.91273021e-01,-1,-0.9152700458420719
8.04623839e+02,2.99974582e+02,-3.28876190e-05,4.67795034,1.57222252,-2.34509851,7.39732016e-01,4.25377109e-05,7.50749436,-4.87093649e-01,-1,-0.9131548093931777
8.14795058e+02,2.99974248e+02,-3.28826113e-05,4.67869307,1.57075874,-2.34509851,7.39732015e-01,4.25411926e-05,7.50888624,-4.82914276e-01,-1,-0.9110395731522464
8.24966277e+02,2.99973914e+02,-3.28776035e-05,4.67943580,1.56929496,-2.34509851,7.39732014e-01,4.25446743e-05,7.51027812,-4.78734904e-01,-1,-0.908924336911315
8.35354829e+02,2.99973572e+02,-3.28692421e-05,4.68018712,1.56781210,-2.34509851,7.39732013e-01,4.25484047e-05,7.51168846,-4.74499800e-01,-1,-0.9067639034685586
8.46614417e+02,2.99973204e+02,-3.28474395e-05,4.68097290,1.56625279,-2.34509851,7.39732012e-01,4.25531320e-05,7.51317276,-4.70041329e-01,-1,-0.9044223268497134
8.57874005e+02,2.99972836e+02,-3.28256370e-05,4.68175868,1.56469348,-2.34509851,7.39732011e-01,4.25578593e-05,7.51465705,-4.65582858e-01,-1,-0.902080750230868
8.69133594e+02,2.99972467e+02,-3.28038345e-05,4.68254446,1.56313418,-2.34509851,7.39732009e-01,4.25625866e-05,7.51614135,-4.61124388e-01,-1,-0.8997391734040597
8.80393182e+02,2.99972099e+02,-3.27820320e-05,4.68333025,1.56157487,-2.34509851,7.39732008e-01,4.25673138e-05,7.51762565,-4.56665917e-01,-1,-0.8973975967852145
8.91652770e+02,2.99971730e+02,-3.27602295e-05,4.68411603,1.56001556,-2.34509851,7.39732007e-01,4.25720411e-05,7.51910995,-4.52207446e-01,-1,-0.8950560201663691
9.02912358e+02,2.99971362e+02,-3.27384270e-05,4.68490181,1.55845625,-2.34509851,7.39732005e-01,4.25767684e-05,7.52059425,-4.47748975e-01,-1,-0.8927144435475238
9.14340736e+02,2.99970988e+02,-3.27141542e-05,4.68569571,1.55688046,-2.34509851,7.39732004e-01,4.25817342e-05,7.52209256,-4.43248527e-01,-1,-0.8903377648701045
9.26558950e+02,2.99970591e+02,-3.26783220e-05,4.68652760,1.55522753,-2.34509851,7.39732002e-01,4.25878157e-05,7.52365647,-4.38551645e-01,-1,-0.8877968296044049
9.38777165e+02,2.99970194e+02,-3.26424898e-05,4.68735950,1.55357459,-2.34509851,7.39732000e-01,4.25938972e-05,7.52522037,-4.33854764e-01,-1,-0.8852558941307422
9.50995380e+02,2.99969797e+02,-3.26066575e-05,4.68819140,1.55192166,-2.34509851,7.39731999e-01,4.25999788e-05,7.52678428,-4.29157883e-01,-1,-0.8827149586570797
9.63213594e+02,2.99969400e+02,-3.25708253e-05,4.68902329,1.55026873,-2.34509851,7.39731997e-01,4.26060603e-05,7.52834819,-4.24461001e-01,-1,-0.8801740233913801
9.75431809e+02,2.99969003e+02,-3.25349931e-05,4.68985519,1.54861579,-2.34509851,7.39731995e-01,4.26121419e-05,7.52991209,-4.19764120e-01,-1,-0.8776330879177174
9.87728147e+02,2.99968603e+02,-3.24984857e-05,4.69069010,1.54695656,-2.34509851,7.39731993e-01,4.26183722e-05,7.53148143,-4.15050944e-01,-1,-0.8750759057581021
1.00086933e+03,2.99968179e+02,-3.24546776e-05,4.69155759,1.54522922,-2.34509851,7.39731991e-01,4.26262117e-05,7.53310951,-4.10161556e-01,-1,-0.8723430271788177
1.01401050e+03,2.99967756e+02,-3.24108694e-05,4.69242508,1.54350187,-2.34509851,7.39731989e-01,4.26340511e-05,7.53473759,-4.05272169e-01,-1,-0.8696101513030511
1.02715168e+03,2.99967332e+02,-3.23670612e-05,4.69329257,1.54177453,-2.34509851,7.39731987e-01,4.26418906e-05,7.53636567,-4.00382782e-01,-1,-0.8668772733476554
1.04029286e+03,2.99966908e+02,-3.23232530e-05,4.69416006,1.54004719,-2.34509852,7.39731984e-01,4.26497300e-05,7.53799375,-3.95493394e-01,-1,-0.8641443953922596
1.05343404e+03,2.99966484e+02,-3.22794448e-05,4.69502755,1.53831984,-2.34509852,7.39731982e-01,4.26575695e-05,7.53962183,-3.90604007e-01,-1,-0.861411517436864
1.06707072e+03,2.99966046e+02,-3.22352800e-05,4.69591225,1.53655730,-2.34509852,7.39731979e-01,4.26669801e-05,7.54127697,-3.85633946e-01,-1,-0.8585755938625134
1.08121605e+03,2.99965594e+02,-3.21907491e-05,4.69681462,1.53475863,-2.34509852,7.39731976e-01,4.26780034e-05,7.54295989,-3.80581070e-01,-1,-0.8556338899570195
1.09536138e+03,2.99965141e+02,-3.21462181e-05,4.69771699,1.53295996,-2.34509852,7.39731973e-01,4.26890268e-05,7.54464280,-3.75528195e-01,-1,-0.8526921860515257
1.10950671e+03,2.99964689e+02,-3.21016872e-05,4.69861936,1.53116129,-2.34509852,7.39731969e-01,4.27000502e-05,7.54632572,-3.70475320e-01,-1,-0.8497504821460319
1.12365204e+03,2.99964236e+02,-3.20571562e-05,4.69952173,1.52936262,-2.34509852,7.39731966e-01,4.27110735e-05,7.54800864,-3.65422444e-01,-1,-0.846808778240538
1.13779737e+03,2.99963784e+02,-3.20126253e-05,4.70042409,1.52756395,-2.34509852,7.39731963e-01,4.27220969e-05,7.54969156,-3.60369569e-01,-1,-0.8438670743350443
1.15225951e+03,2.99963323e+02,-3.19659088e-05,4.70133229,1.52575193,-2.34509852,7.39731959e-01,4.27345935e-05,7.55138490,-3.55285286e-01,-1,-0.8408594857019195
1.16762183e+03,2.99962837e+02,-3.19129823e-05,4.70225702,1.52390198,-2.34509852,7.39731954e-01,4.27512765e-05,7.55310785,-3.50111759e-01,-1,-0.8376646930218303
1.18298416e+03,2.99962352e+02,-3.18600558e-05,4.70318175,1.52205203,-2.34509852,7.39731948e-01,4.27679594e-05,7.55483081,-3.44938231e-01,-1,-0.8344698982621122
1.19834648e+03,2.99961866e+02,-3.18071292e-05,4.70410649,1.52020208,-2.34509852,7.39731943e-01,4.27846424e-05,7.55655376,-3.39764703e-01,-1,-0.8312751055820229
1.21370881e+03,2.99961380e+02,-3.17542027e-05,4.70503122,1.51835213,-2.34509852,7.39731938e-01,4.28013253e-05,7.55827672,-3.34591175e-01,-1,-0.8280803108223047
1.22907114e+03,2.99960895e+02,-3.17012761e-05,4.70595595,1.51650218,-2.34509852,7.39731933e-01,4.28180083e-05,7.55999967,-3.29417647e-01,-1,-0.8248855160625865
1.24443346e+03,2.99960409e+02,-3.16483496e-05,4.70688069,1.51465223,-2.34509852,7.39731928e-01,4.28346912e-05,7.56172262,-3.24244119e-01,-1,-0.8216907233824973
1.26026808e+03,2.99959911e+02,-3.15833811e-05,4.70780653,1.51279538,-2.34509852,7.39731922e-01,4.28533836e-05,7.56345456,-3.19042896e-01,-1,-0.818397709822827
1.27689631e+03,2.99959393e+02,-3.14981781e-05,4.70873426,1.51092694,-2.34509852,7.39731915e-01,4.28754526e-05,7.56520158,-3.13795135e-01,-1,-0.8149396548228766
1.29352454e+03,2.99958876e+02,-3.14129750e-05,4.70966198,1.50905850,-2.34509852,7.39731908e-01,4.28975216e-05,7.56694861,-3.08547374e-01,-1,-0.8114815998229261
1.31015277e+03,2.99958358e+02,-3.13277720e-05,4.71058970,1.50719005,-2.34509852,7.39731901e-01,4.29195906e-05,7.56869563,-3.03299613e-01,-1,-0.8080235448229756
1.32678100e+03,2.99957840e+02,-3.12425690e-05,4.71151742,1.50532161,-2.34509852,7.39731895e-01,4.29416596e-05,7.57044265,-2.98051852e-01,-1,-0.8045654898230251
1.34340923e+03,2.99957322e+02,-3.11573659e-05,4.71244514,1.50345316,-2.34509852,7.39731888e-01,4.29637286e-05,7.57218968,-2.92804091e-01,-1,-0.8011074348230747
1.36097826e+03,2.99956782e+02,-3.10668158e-05,4.71338056,1.50156710,-2.34509852,7.39731879e-01,4.29912869e-05,7.57394170,-2.87541894e-01,-1,-0.7974537283229973
1.37875884e+03,2.99956236e+02,-3.09750633e-05,4.71431771,1.49967707,-2.34509853,7.39731870e-01,4.30200796e-05,7.57569484,-2.82276450e-01,-1,-0.793756027270569
1.39653943e+03,2.99955691e+02,-3.08833107e-05,4.71525486,1.49778704,-2.34509853,7.39731861e-01,4.30488724e-05,7.57744798,-2.77011006e-01,-1,-0.7900583241385117
1.41432002e+03,2.99955145e+02,-3.07915581e-05,4.71619201,1.49589701,-2.34509853,7.39731852e-01,4.30776651e-05,7.57920112,-2.71745562e-01,-1,-0.7863606210064544
1.43210060e+03,2.99954600e+02,-3.06998056e-05,4.71712916,1.49400698,-2.34509853,7.39731843e-01,4.31064579e-05,7.58095426,-2.66480119e-01,-1,-0.7826629199540261
1.45088861e+03,2.99954030e+02,-3.06169881e-05,4.71805933,1.49212767,-2.34509853,7.39731831e-01,4.31449145e-05,7.58268019,-2.61297549e-01,-1,-0.7787557108331744
1.46993669e+03,2.99953454e+02,-3.05364773e-05,4.71898770,1.49025114,-2.34509853,7.39731818e-01,4.31858660e-05,7.58439909,-2.56136373e-01,-1,-0.7747944167998675
1.48898476e+03,2.99952878e+02,-3.04559664e-05,4.71991606,1.48837460,-2.34509853,7.39731805e-01,4.32268174e-05,7.58611799,-2.50975198e-01,-1,-0.7708331248461895
1.50803284e+03,2.99952303e+02,-3.03754556e-05,4.72084443,1.48649806,-2.34509853,7.39731792e-01,4.32677689e-05,7.58783689,-2.45814022e-01,-1,-0.7668718308128825
1.52708092e+03,2.99951727e+02,-3.02949448e-05,4.72177280,1.48462153,-2.34509853,7.39731779e-01,4.33087203e-05,7.58955579,-2.40652846e-01,-1,-0.7629105367795754
1.54639588e+03,2.99951145e+02,-3.02136425e-05,4.72269329,1.48275878,-2.34509853,7.39731764e-01,4.33526115e-05,7.59125949,-2.35538270e-01,-1,-0.7588937416064365
1.56701504e+03,2.99950533e+02,-3.01284726e-05,4.72357533,1.48096338,-2.34509853,7.39731746e-01,4.34108683e-05,7.59288892,-2.30651408e-01,-1,-0.7546057212138404
1.58763419e+03,2.99949920e+02,-3.00433028e-05,4.72445737,1.47916798,-2.34509853,7.39731727e-01,4.34691250e-05,7.59451834,-2.25764546e-01,-1,-0.7503177029008733
1.60825335e+03,2.99949308e+02,-2.99581329e-05,4.72533941,1.47737258,-2.34509853,7.39731708e-01,4.35273817e-05,7.59614776,-2.20877683e-01,-1,-0.7460296825082771
1.62887251e+03,2.99948696e+02,-2.98729631e-05,4.72622144,1.47557718,-2.34509853,7.39731690e-01,4.35856385e-05,7.59777719,-2.15990821e-01,-1,-0.741741662115681
1.64949166e+03,2.99948083e+02,-2.97877932e-05,4.72710348,1.47378178,-2.34509854,7.39731671e-01,4.36438952e-05,7.59940661,-2.11103959e-01,-1,-0.7374536438027139
1.67011082e+03,2.99947471e+02,-2.97026233e-05,4.72798552,1.47198638,-2.34509854,7.39731652e-01,4.37021520e-05,7.60103603,-2.06217097e-01,-1,-0.7331656234101178
1.69229499e+03,2.99946825e+02,-2.95882993e-05,4.72881157,1.47028884,-2.34509854,7.39731628e-01,4.37778400e-05,7.60256388,-2.01670907e-01,-1,-0.72855213899306
1.71458928e+03,2.99946177e+02,-2.94719238e-05,4.72963368,1.46859819,-2.34509854,7.39731603e-01,4.38547546e-05,7.60408459,-1.97148689e-01,-1,-0.7239157537010088
1.73688357e+03,2.99945528e+02,-2.93555483e-05,4.73045580,1.46690754,-2.34509854,7.39731578e-01,4.39316693e-05,7.60560529,-1.92626471e-01,-1,-0.7192793684089575
1.75917785e+03,2.99944880e+02,-2.92391728e-05,4.73127791,1.46521689,-2.34509854,7.39731554e-01,4.40085839e-05,7.60712600,-1.88104253e-01,-1,-0.7146429851965352
1.78147214e+03,2.99944232e+02,-2.91227973e-05,4.73210002,1.46352624,-2.34509854,7.39731529e-01,4.40854985e-05,7.60864670,-1.83582035e-01,-1,-0.710006599904484
1.80484006e+03,2.99943561e+02,-2.90202310e-05,4.73289088,1.46189687,-2.34509854,7.39731499e-01,4.41787048e-05,7.61009392,-1.79278721e-01,-1,-0.7051469393997614
1.82888866e+03,2.99942875e+02,-2.89264197e-05,4.73366192,1.46030637,-2.34509854,7.39731465e-01,4.42822400e-05,7.61149454,-1.75114193e-01,-1,-0.7001457227055126
1.85293725e+03,2.99942189e+02,-2.88326084e-05,4.73443296,1.45871586,-2.34509854,7.39731432e-01,4.43857752e-05,7.61289516,-1.70949664e-01,-1,-0.6951445080908928
1.87698584e+03,2.99941503e+02,-2.87387971e-05,4.73520399,1.45712535,-2.34509854,7.39731398e-01,4.44893104e-05,7.61429578,-1.66785136e-01,-1,-0.690143293476273
1.90103444e+03,2.99940817e+02,-2.86449858e-05,4.73597503,1.45553484,-2.34509855,7.39731364e-01,4.45928456e-05,7.61569640,-1.62620607e-01,-1,-0.6851420767820242
