star_age,star_mass,star_mdot,log_Teff,log_R,log_surf_z,surface_h1,surface_he3,log_center_T,log_center_Rho,phase,x
3.17050110e+03,5.99999959e-01,-1.11572189e-11,3.59741116,9.57538081e-01,-1.84510103,7.15400210e-01,4.48623409e-05,5.73880487,-2.06451025,-1,-1.0
3.34738005e+03,5.99999957e-01,-1.09811008e-11,3.59759286,9.54990896e-01,-1.84510090,7.15400198e-01,4.48623416e-05,5.74118083,-2.05741559,-1,-0.9999986737226519
3.53420720e+03,5.99999955e-01,-1.08011561e-11,3.59777536,9.52344625e-01,-1.84510076,7.15400186e-01,4.48623423e-05,5.74364994,-2.05004126,-1,-0.999997272851508
3.73144528e+03,5.99999953e-01,-1.06167111e-11,3.59795653,9.49598479e-01,-1.84510060,7.15400172e-01,4.48623431e-05,5.74621297,-2.04238615,-1,-0.9999957939169165
3.93958458e+03,5.99999951e-01,-1.04272223e-11,3.59815438,9.46750599e-01,-1.84510042,7.15400157e-01,4.48623440e-05,5.74887176,-2.03444422,-1,-0.999994233242575
4.15905902e+03,5.99999949e-01,-1.02362244e-11,3.59836287,9.43800680e-01,-1.84510026,7.15400143e-01,4.48623448e-05,5.75162670,-2.02621492,-1,-0.9999925875748557
4.39032248e+03,5.99999947e-01,-1.00424213e-11,3.59860681,9.40747652e-01,-1.84510010,7.15400129e-01,4.48623456e-05,5.75447876,-2.01769431,-1,-0.9999908535104663
4.63416504e+03,5.99999944e-01,-9.84828553e-12,3.59882528,9.37589509e-01,-1.84509994,7.15400116e-01,4.48623465e-05,5.75742995,-2.00887726,-1,-0.9999890251252129
4.89275736e+03,5.99999942e-01,-9.64645818e-12,3.59904041,9.34313608e-01,-1.84509977,7.15400101e-01,4.48623475e-05,5.76049300,-1.99972704,-1,-0.9999870861430086
5.16463765e+03,5.99999939e-01,-9.44248508e-12,3.59926552,9.30935698e-01,-1.84509960,7.15400086e-01,4.48623484e-05,5.76365231,-1.99028756,-1,-0.9999850475246767
5.45180623e+03,5.99999936e-01,-9.23824662e-12,3.59950848,9.27445219e-01,-1.84509944,7.15400073e-01,4.48623494e-05,5.76691798,-1.98053033,-1,-0.9999828942713771
5.75514926e+03,5.99999934e-01,-9.03516254e-12,3.59979543,9.23839401e-01,-1.84509929,7.15400060e-01,4.48623504e-05,5.77029265,-1.97044704,-1,-0.9999806197384868
6.07462861e+03,5.99999931e-01,-8.82763202e-12,3.60004303,9.20125838e-01,-1.84509916,7.15400049e-01,4.48623514e-05,5.77376986,-1.96005839,-1,-0.9999782242119132
6.41227916e+03,5.99999928e-01,-8.61789536e-12,3.60029546,9.16296229e-01,-1.84509904,7.15400039e-01,4.48623523e-05,5.77735693,-1.94933769,-1,-0.9999756924336772
6.76835515e+03,5.99999925e-01,-8.40664201e-12,3.60054898,9.12355030e-01,-1.84509894,7.15400031e-01,4.48623533e-05,5.78104965,-1.93829975,-1,-0.9999730224974315
7.14334419e+03,5.99999922e-01,-8.19345883e-12,3.60080413,9.08304676e-01,-1.84509885,7.15400023e-01,4.48623545e-05,5.78484649,-1.92695145,-1,-0.9999702107469688
7.54028471e+03,5.99999919e-01,-7.97900214e-12,3.60105189,9.04134888e-01,-1.84509877,7.15400017e-01,4.48623559e-05,5.78875693,-1.91526079,-1,-0.9999672343994714
7.95845384e+03,5.99999915e-01,-7.76217482e-12,3.60132512,8.99854254e-01,-1.84509871,7.15400011e-01,4.48623572e-05,5.79277254,-1.90325514,-1,-0.9999640988751778
8.39948026e+03,5.99999912e-01,-7.55211324e-12,3.60163857,8.95460249e-01,-1.84509866,7.15400007e-01,4.48623587e-05,5.79689621,-1.89092592,-1,-0.9999607919618865
8.86452171e+03,5.99999909e-01,-7.34056823e-12,3.60191152,8.90955105e-01,-1.84509862,7.15400004e-01,4.48623608e-05,5.80112595,-1.87827649,-1,-0.9999573049786077
9.35505577e+03,5.99999905e-01,-7.13013712e-12,3.60219385,8.86339185e-01,-1.84509858,7.15400001e-01,4.48623636e-05,5.80546157,-1.86530788,-1,-0.999953626846121
9.87302294e+03,5.99999901e-01,-6.91773827e-12,3.60247159,8.81586583e-01,-1.84509855,7.15399998e-01,4.48623671e-05,5.80987733,-1.85203042,-1,-0.9999497430141298
1.04193883e+04,5.99999898e-01,-6.70805862e-12,3.60278052,8.76748458e-01,-1.84509853,7.15399997e-01,4.48623713e-05,5.81442655,-1.83841997,-1,-0.9999456462462515
1.09954437e+04,5.99999894e-01,-6.50094963e-12,3.60307744,8.71778075e-01,-1.84509851,7.15399995e-01,4.48623765e-05,5.81908329,-1.82446468,-1,-0.9999413268559102
1.16028498e+04,5.99999890e-01,-6.29398272e-12,3.60336822,8.66704068e-01,-1.84509850,7.15399994e-01,4.48623833e-05,5.82384662,-1.81020147,-1,-0.9999367723911111
1.22442084e+04,5.99999886e-01,-6.08962108e-12,3.60366814,8.61545090e-01,-1.84509849,7.15399993e-01,4.48623932e-05,5.82870517,-1.79566376,-1,-0.9999319633429846
1.29205796e+04,5.99999882e-01,-5.88934452e-12,3.60398752,8.56260881e-01,-1.84509849,7.15399993e-01,4.48624084e-05,5.83368121,-1.78077239,-1,-0.999926891762667
1.36336208e+04,5.99999878e-01,-5.69058308e-12,3.60427629,8.50888329e-01,-1.84509848,7.15399992e-01,4.48624312e-05,5.83874528,-1.76561848,-1,-0.9999215452226081
1.43850964e+04,5.99999874e-01,-5.49306145e-12,3.60455041,8.45418655e-01,-1.84509848,7.15399992e-01,4.48624580e-05,5.84390342,-1.75017890,-1,-0.9999159104929478
1.51774292e+04,5.99999870e-01,-5.30184487e-12,3.60489289,8.39843095e-01,-1.84509848,7.15399992e-01,4.48624828e-05,5.84916374,-1.73443275,-1,-0.9999099694069976
1.60143766e+04,5.99999865e-01,-5.11300359e-12,3.60518575,8.34181343e-01,-1.84509847,7.15399992e-01,4.48625150e-05,5.85450958,-1.71843105,-1,-0.9999036937909445
1.68959304e+04,5.99999861e-01,-4.92659048e-12,3.60547395,8.28424790e-01,-1.84509847,7.15399992e-01,4.48625589e-05,5.85994750,-1.70215200,-1,-0.9998970837062736
1.78250022e+04,5.99999856e-01,-4.74339499e-12,3.60575821,8.22574883e-01,-1.84509847,7.15399992e-01,4.48626168e-05,5.86547616,-1.68559967,-1,-0.9998901173211667
1.88060300e+04,5.99999852e-01,-4.56559108e-12,3.60606051,8.16635435e-01,-1.84509847,7.15399992e-01,4.48626947e-05,5.87109257,-1.66878005,-1,-0.9998827613585216
1.98390286e+04,5.99999847e-01,-4.39168001e-12,3.60637787,8.10609557e-01,-1.84509847,7.15399992e-01,4.48628030e-05,5.87679335,-1.65170646,-1,-0.9998750157073647
2.09297238e+04,5.99999843e-01,-4.22229404e-12,3.60665824,8.04506006e-01,-1.84509847,7.15399992e-01,4.48629634e-05,5.88257135,-1.63439967,-1,-0.9998668374343858
2.20781462e+04,5.99999838e-01,-4.05604450e-12,3.60693006,7.98327562e-01,-1.84509847,7.15399992e-01,4.48631586e-05,5.88842357,-1.61686984,-1,-0.9998582263101392
2.32904888e+04,5.99999833e-01,-3.89439420e-12,3.60724841,7.92059340e-01,-1.84509847,7.15399992e-01,4.48633782e-05,5.89436421,-1.59907459,-1,-0.9998491358981461
2.45681842e+04,5.99999828e-01,-3.73877736e-12,3.60753653,7.85725079e-01,-1.84509847,7.15399992e-01,4.48637511e-05,5.90037114,-1.58108038,-1,-0.9998395554564561
2.59137391e+04,5.99999823e-01,-3.58562936e-12,3.60780564,7.79318189e-01,-1.84509847,7.15399991e-01,4.48642278e-05,5.90645016,-1.56286713,-1,-0.99982946618928
2.73345393e+04,5.99999819e-01,-3.43661773e-12,3.60806999,7.72837117e-01,-1.84509847,7.15399991e-01,4.48648600e-05,5.91260307,-1.54443168,-1,-0.9998188127162619
2.88321014e+04,5.99999814e-01,-3.29373197e-12,3.60837038,7.66287136e-01,-1.84509847,7.15399991e-01,4.48657877e-05,5.91882491,-1.52578561,-1,-0.9998075836656007
3.04093501e+04,5.99999808e-01,-3.15468111e-12,3.60860883,7.59680287e-01,-1.84509847,7.15399990e-01,4.48670005e-05,5.92510406,-1.50696652,-1,-0.9997957571072512
3.20720288e+04,5.99999803e-01,-3.01921233e-12,3.60884694,7.53018183e-01,-1.84509847,7.15399990e-01,4.48691202e-05,5.93143887,-1.48797829,-1,-0.9997832899759345
3.38277851e+04,5.99999798e-01,-2.89015868e-12,3.60914727,7.46303502e-01,-1.84509847,7.15399989e-01,4.48718003e-05,5.93782728,-1.46882289,-1,-0.9997701249282603
3.56771561e+04,5.99999793e-01,-2.76421417e-12,3.60938680,7.39531308e-01,-1.84509847,7.15399988e-01,4.48745170e-05,5.94427429,-1.44949540,-1,-0.9997562579369346
3.76263861e+04,5.99999788e-01,-2.64270903e-12,3.60961816,7.32714766e-01,-1.84509847,7.15399987e-01,4.48782024e-05,5.95076768,-1.43002977,-1,-0.9997416421808197
3.96808264e+04,5.99999783e-01,-2.52540818e-12,3.60983545,7.25856654e-01,-1.84509847,7.15399985e-01,4.48827335e-05,5.95730404,-1.41043398,-1,-0.999726237534689
4.18466941e+04,5.99999777e-01,-2.41214284e-12,3.61003990,7.18963008e-01,-1.84509847,7.15399983e-01,4.48902852e-05,5.96387764,-1.39072191,-1,-0.9997099973813566
4.41299470e+04,5.99999772e-01,-2.30426665e-12,3.61024054,7.12039987e-01,-1.84509847,7.15399979e-01,4.49000589e-05,5.97048247,-1.37091372,-1,-0.999692877047925
4.65372343e+04,5.99999767e-01,-2.20028353e-12,3.61043797,7.05097621e-01,-1.84509847,7.15399975e-01,4.49128640e-05,5.97710916,-1.35103545,-1,-0.9996748266772273
4.90754234e+04,5.99999761e-01,-2.10025670e-12,3.61062022,6.98141469e-01,-1.84509847,7.15399969e-01,4.49306353e-05,5.98375252,-1.33110615,-1,-0.9996557947759848
5.17525539e+04,5.99999756e-01,-2.00544745e-12,3.61081020,6.91181839e-01,-1.84509847,7.15399961e-01,4.49542697e-05,5.99040336,-1.31115238,-1,-0.9996357210615049
5.45755148e+04,5.99999750e-01,-1.91437470e-12,3.61097493,6.84234826e-01,-1.84509847,7.15399951e-01,4.49856089e-05,5.99704620,-1.29122234,-1,-0.9996145538785475
5.75525562e+04,5.99999745e-01,-1.82763568e-12,3.61112780,6.77314575e-01,-1.84509847,7.15399937e-01,4.50274241e-05,6.00366679,-1.27135913,-1,-0.9995922313660445
6.06919474e+04,5.99999739e-01,-1.74488008e-12,3.61125204,6.70443739e-01,-1.84509847,7.15399918e-01,4.50838407e-05,6.01024312,-1.25162648,-1,-0.9995686915189622
6.40041062e+04,5.99999734e-01,-1.66657295e-12,3.61137441,6.63633581e-01,-1.84509847,7.15399893e-01,4.51605868e-05,6.01676469,-1.23205641,-1,-0.9995438562223402
6.74990273e+04,5.99999728e-01,-1.59260083e-12,3.61147865,6.56932597e-01,-1.84509847,7.15399859e-01,4.52623195e-05,6.02318511,-1.21279152,-1,-0.9995176505337154
7.11889215e+04,5.99999722e-01,-1.52354333e-12,3.61160567,6.50361627e-01,-1.84509847,7.15399815e-01,4.53942600e-05,6.02948393,-1.19388935,-1,-0.9994899828938183
7.50825585e+04,5.99999716e-01,-1.45861126e-12,3.61169042,6.43966964e-01,-1.84509847,7.15399761e-01,4.55563273e-05,6.03561627,-1.17548374,-1,-0.9994607875455055
7.91929113e+04,5.99999711e-01,-1.39807459e-12,3.61174828,6.37784519e-01,-1.84509847,7.15399693e-01,4.57608279e-05,6.04154775,-1.15767662,-1,-0.9994299672143641
8.35416507e+04,5.99999705e-01,-1.34284810e-12,3.61179954,6.31875756e-01,-1.84509847,7.15399603e-01,4.60292484e-05,6.04721874,-1.14065032,-1,-0.9993973594079598
8.81326832e+04,5.99999699e-01,-1.29213645e-12,3.61185984,6.26268824e-01,-1.84509847,7.15399491e-01,4.63649861e-05,6.05260247,-1.12448640,-1,-0.9993629348344948
9.29920343e+04,5.99999693e-01,-1.24658599e-12,3.61193181,6.21013480e-01,-1.84509847,7.15399352e-01,4.67820045e-05,6.05765068,-1.10932832,-1,-0.9993264983490344
9.81217420e+04,5.99999686e-01,-1.20536365e-12,3.61196043,6.16123917e-01,-1.84509847,7.15399183e-01,4.72886838e-05,6.06234941,-1.09522374,-1,-0.9992880346702055
1.03544328e+05,5.99999680e-01,-1.16842388e-12,3.61198051,6.11626534e-01,-1.84509847,7.15398980e-01,4.78970577e-05,6.06667280,-1.08224146,-1,-0.9992473749253382
1.09280207e+05,5.99999673e-01,-1.13535114e-12,3.61198212,6.07527223e-01,-1.84509847,7.15398742e-01,4.86131862e-05,6.07061487,-1.07040627,-1,-0.9992043660405129
1.15349104e+05,5.99999667e-01,-1.10626265e-12,3.61198761,6.03777753e-01,-1.84509847,7.15398465e-01,4.94421696e-05,6.07422145,-1.05957631,-1,-0.9991588601133323
1.21765723e+05,5.99999660e-01,-1.08032193e-12,3.61199037,6.00335350e-01,-1.84509847,7.15398155e-01,5.03724327e-05,6.07753352,-1.04963126,-1,-0.9991107468899643
1.28529381e+05,5.99999652e-01,-1.05663839e-12,3.61199076,5.97112012e-01,-1.84509847,7.15397821e-01,5.13763225e-05,6.08063593,-1.04031614,-1,-0.9990600314916931
1.35686088e+05,5.99999645e-01,-1.03456316e-12,3.61198759,5.94043084e-01,-1.84509847,7.15397469e-01,5.24302908e-05,6.08359013,-1.03144642,-1,-0.999006368925399
1.43225959e+05,5.99999637e-01,-1.01348690e-12,3.61198513,5.91032078e-01,-1.84509847,7.15397099e-01,5.35424328e-05,6.08648916,-1.02274260,-1,-0.9989498333109906
1.51208562e+05,5.99999629e-01,-9.93151197e-13,3.61198034,5.87990345e-01,-1.84509847,7.15396691e-01,5.47661600e-05,6.08941834,-1.01394756,-1,-0.9988899779944761
1.59594623e+05,5.99999621e-01,-9.72414900e-13,3.61196742,5.84844848e-01,-1.84509847,7.15396266e-01,5.60394990e-05,6.09244786,-1.00485210,-1,-0.9988270974609628
1.68478954e+05,5.99999613e-01,-9.50751966e-13,3.61195086,5.81478086e-01,-1.84509847,7.15395828e-01,5.73542184e-05,6.09569140,-9.95112307e-01,-1,-0.9987604807891799
1.77819203e+05,5.99999604e-01,-9.27617333e-13,3.61192993,5.77822914e-01,-1.84509847,7.15395383e-01,5.86890967e-05,6.09921328,-9.84536389e-01,-1,-0.9986904455437569
1.87673064e+05,5.99999595e-01,-9.02339466e-13,3.61192590,5.73746669e-01,-1.84509847,7.15394935e-01,6.00326170e-05,6.10314196,-9.72738073e-01,-1,-0.9986165591223671
1.98022414e+05,5.99999586e-01,-8.74484732e-13,3.61188657,5.69162774e-01,-1.84509847,7.15394503e-01,6.13284671e-05,6.10756111,-9.59465728e-01,-1,-0.9985389574152587
2.08915229e+05,5.99999577e-01,-8.43134179e-13,3.61183285,5.63920948e-01,-1.84509847,7.15394092e-01,6.25622765e-05,6.11261597,-9.44284284e-01,-1,-0.9984572806878105
2.20358958e+05,5.99999567e-01,-8.08087704e-13,3.61177974,5.57844507e-01,-1.84509847,7.15393728e-01,6.36557643e-05,6.11847786,-9.26680623e-01,-1,-0.9983714730857788
2.32322796e+05,5.99999558e-01,-7.68917119e-13,3.61168340,5.50845560e-01,-1.84509847,7.15393400e-01,6.46382356e-05,6.12523191,-9.06395090e-01,-1,-0.9982817655918425
2.44814284e+05,5.99999549e-01,-7.26389776e-13,3.61156768,5.42772607e-01,-1.84509847,7.15393151e-01,6.53865454e-05,6.13302492,-8.82985190e-01,-1,-0.9981881016619217
2.57823655e+05,5.99999540e-01,-6.80593381e-13,3.61141228,5.33603451e-01,-1.84509847,7.15392982e-01,6.58929742e-05,6.14188108,-8.56379975e-01,-1,-0.998090554531135
2.71352058e+05,5.99999531e-01,-6.33265480e-13,3.61119330,5.23534676e-01,-1.84509847,7.15392888e-01,6.61754069e-05,6.15161247,-8.27143970e-01,-1,-0.9979891155840271
2.85470796e+05,5.99999522e-01,-5.86709661e-13,3.61092738,5.12928136e-01,-1.84509847,7.15392850e-01,6.62892134e-05,6.16187032,-7.96327890e-01,-1,-0.99788325017499
3.00285291e+05,5.99999514e-01,-5.43074794e-13,3.61061368,5.02188841e-01,-1.84509847,7.15392840e-01,6.63195226e-05,6.17226301,-7.65107621e-01,-1,-0.9977721678266348
3.15885181e+05,5.99999506e-01,-5.03134539e-13,3.61028471,4.91584653e-01,-1.84509847,7.15392838e-01,6.63240357e-05,6.18253118,-7.34260190e-01,-1,-0.9976551964134829
3.32331423e+05,5.99999498e-01,-4.66602046e-13,3.60991242,4.81188183e-01,-1.84509847,7.15392838e-01,6.63243427e-05,6.19267192,-7.03869363e-01,-1,-0.9975318788665143
3.49677303e+05,5.99999490e-01,-4.33566349e-13,3.60952040,4.71044413e-01,-1.84509847,7.15392838e-01,6.63243525e-05,6.20251102,-6.74311295e-01,-1,-0.9974018156355579
3.67977331e+05,5.99999483e-01,-4.03272668e-13,3.60909901,4.61111151e-01,-1.84509847,7.15392838e-01,6.63243526e-05,6.21214467,-6.45358711e-01,-1,-0.9972645979926206
3.87265232e+05,5.99999475e-01,-3.75488179e-13,3.60865198,4.51365428e-01,-1.84509847,7.15392838e-01,6.63243526e-05,6.22160210,-6.16937935e-01,-1,-0.99711997306022
4.07596345e+05,5.99999468e-01,-3.49971675e-13,3.60818169,4.41794833e-01,-1.84509847,7.15392838e-01,6.63243526e-05,6.23089361,-5.89017525e-01,-1,-0.9969675258943387
4.29024107e+05,5.99999461e-01,-3.26397892e-13,3.60768523,4.32387550e-01,-1.84509847,7.15392838e-01,6.63243526e-05,6.24003078,-5.61561070e-01,-1,-0.9968068558125737
4.51608366e+05,5.99999454e-01,-3.04780860e-13,3.60716051,4.23135030e-01,-1.84509847,7.15392838e-01,6.63243526e-05,6.24902152,-5.34544629e-01,-1,-0.9966375140614319
4.75416187e+05,5.99999447e-01,-2.84733230e-13,3.60661939,4.14025561e-01,-1.84509847,7.15392838e-01,6.63243526e-05,6.25787712,-5.07934839e-01,-1,-0.9964589977727631
5.00507024e+05,5.99999440e-01,-2.66203578e-13,3.60605236,4.05052535e-01,-1.84509847,7.15392838e-01,6.63243526e-05,6.26660334,-4.81707480e-01,-1,-0.9962708611473731
5.26954769e+05,5.99999433e-01,-2.49148424e-13,3.60546910,3.96206528e-01,-1.84509847,7.15392838e-01,6.63243526e-05,6.27520954,-4.55839238e-01,-1,-0.9960725501267612
5.54814406e+05,5.99999427e-01,-2.33238898e-13,3.60484170,3.87486084e-01,-1.84509847,7.15392838e-01,6.63243526e-05,6.28369675,-4.30324943e-01,-1,-0.995863652428778
5.84191540e+05,5.99999420e-01,-2.18519314e-13,3.60422954,3.78871849e-01,-1.84509847,7.15392838e-01,6.63243526e-05,6.29208401,-4.05110130e-01,-1,-0.99564337620386
6.15153212e+05,5.99999414e-01,-2.04909978e-13,3.60360700,3.70364398e-01,-1.84509847,7.15392838e-01,6.63243527e-05,6.30037059,-3.80201801e-01,-1,-0.9954112187638148
6.47761305e+05,5.99999407e-01,-1.92214515e-13,3.60295397,3.61959248e-01,-1.84509847,7.15392838e-01,6.63243527e-05,6.30856050,-3.55586372e-01,-1,-0.9951667160962703
6.82154705e+05,5.99999401e-01,-1.80399969e-13,3.60230339,3.53646496e-01,-1.84509847,7.15392838e-01,6.63243527e-05,6.31666303,-3.31234079e-01,-1,-0.9949088268033905
7.18389728e+05,5.99999394e-01,-1.69401216e-13,3.60163027,3.45425284e-01,-1.84509847,7.15392838e-01,6.63243527e-05,6.32467863,-3.07136573e-01,-1,-0.9946371286153965
7.56545041e+05,5.99999388e-01,-1.59111307e-13,3.60093508,3.37289199e-01,-1.84509847,7.15392838e-01,6.63243527e-05,6.33261441,-2.83277510e-01,-1,-0.9943510316697857
7.96812238e+05,5.99999382e-01,-1.49533391e-13,3.60025654,3.29228445e-01,-1.84509847,7.15392838e-01,6.63243528e-05,6.34047889,-2.59632141e-01,-1,-0.994049099352522
8.39208821e+05,5.99999376e-01,-1.40631902e-13,3.59955571,3.21243925e-01,-1.84509847,7.15392838e-01,6.63243528e-05,6.34827137,-2.36203778e-01,-1,-0.9937312004297523
8.83920475e+05,5.99999370e-01,-1.32274089e-13,3.59886765,3.13325035e-01,-1.84509847,7.15392838e-01,6.63243529e-05,6.35600179,-2.12957548e-01,-1,-0.9933959425944251
9.31035412e+05,5.99999364e-01,-1.24473147e-13,3.59816878,3.05473549e-01,-1.84509847,7.15392838e-01,6.63243530e-05,6.36366827,-1.89904488e-01,-1,-0.9930426644135241
9.80674330e+05,5.99999358e-01,-1.17186524e-13,3.59746228,2.97684700e-01,-1.84509847,7.15392838e-01,6.63243531e-05,6.37127600,-1.67026081e-01,-1,-0.9926704608668455
1.03303036e+06,5.99999352e-01,-1.10417483e-13,3.59677230,2.89951634e-01,-1.84509847,7.15392838e-01,6.63243532e-05,6.37883165,-1.44303177e-01,-1,-0.9922778838155889
1.08819099e+06,5.99999346e-01,-1.04050639e-13,3.59607550,2.82273825e-01,-1.84509847,7.15392838e-01,6.63243534e-05,6.38633529,-1.21733209e-01,-1,-0.9918642772554495
1.14632577e+06,5.99999340e-01,-9.80792838e-14,3.59538216,2.74646198e-01,-1.84509847,7.15392838e-01,6.63243536e-05,6.39379145,-9.93060313e-02,-1,-0.9914283698631614
1.20761337e+06,5.99999335e-01,-9.24692206e-14,3.59467930,2.67068357e-01,-1.84509847,7.15392838e-01,6.63243539e-05,6.40120055,-7.70195525e-02,-1,-0.9909688219316892
1.27218457e+06,5.99999329e-01,-8.72229778e-14,3.59399503,2.59531976e-01,-1.84509847,7.15392838e-01,6.63243543e-05,6.40857074,-5.48499216e-02,-1,-0.9904846528437714
1.34029416e+06,5.99999323e-01,-8.23105481e-14,3.59331332,2.52039126e-01,-1.84509847,7.15392838e-01,6.63243548e-05,6.41590010,-3.28018630e-02,-1,-0.9899739521278367
1.41207945e+06,5.99999318e-01,-7.76830806e-14,3.59264736,2.44583094e-01,-1.84509847,7.15392838e-01,6.63243554e-05,6.42319503,-1.08564442e-02,-1,-0.9894356902032446
1.48769271e+06,5.99999312e-01,-7.33502887e-14,3.59198114,2.37162476e-01,-1.84509847,7.15392838e-01,6.63243561e-05,6.43045710,1.09914691e-02,-1,-0.9888687253159776
1.56746554e+06,5.99999306e-01,-6.92896816e-14,3.59131399,2.29778208e-01,-1.84509847,7.15392838e-01,6.63243571e-05,6.43768399,3.27373725e-02,-1,-0.988270571056157
1.65149750e+06,5.99999301e-01,-6.54332360e-14,3.59064586,2.22426444e-01,-1.84509847,7.15392838e-01,6.63243583e-05,6.44488094,5.43934540e-02,-1,-0.9876404809009616
1.74005945e+06,5.99999295e-01,-6.18470291e-14,3.59000105,2.15102161e-01,-1.84509847,7.15392838e-01,6.63243598e-05,6.45205205,7.59748069e-02,-1,-0.9869764238824188
1.83349285e+06,5.99999289e-01,-5.84640081e-14,3.58936554,2.07805310e-01,-1.84509847,7.15392838e-01,6.63243617e-05,6.45919821,9.74800423e-02,-1,-0.9862758396581971
1.93196034e+06,5.99999284e-01,-5.52779192e-14,3.58873873,2.00533104e-01,-1.84509847,7.15392838e-01,6.63243641e-05,6.46632036,1.18916579e-01,-1,-0.9855375087177335
2.03572346e+06,5.99999278e-01,-5.22772748e-14,3.58812320,1.93283168e-01,-1.84509847,7.15392838e-01,6.63243671e-05,6.47342145,1.40292242e-01,-1,-0.9847594699764693
