star_age,star_mass,star_mdot,log_L,log_Teff,log_R,log_surf_z,v_wind_Km_per_s,log_center_T,log_center_Rho,phase,x
7.04615948e+03,3.59999975e-01,-2.93469045e-12,6.75654636e-01,3.56110275,7.38298971e-01,-1.84509847,1.66471746e-05,5.73932037,-1.62892920,-1,-1.0
7.42073339e+03,3.59999974e-01,-2.88854771e-12,6.71123854e-01,3.56114619,7.35946702e-01,-1.84509847,1.65250739e-05,5.74150130,-1.62241955,-1,-0.9999979524491897
7.81468540e+03,3.59999973e-01,-2.84149850e-12,6.66438220e-01,3.56119222,7.33511828e-01,-1.84509847,1.63996169e-05,5.74375938,-1.61567909,-1,-0.9999957989709686
8.22920297e+03,3.59999972e-01,-2.79361822e-12,6.61571817e-01,3.56123558,7.30991898e-01,-1.84509847,1.62700203e-05,5.74609719,-1.60870094,-1,-0.9999935330742692
8.66550308e+03,3.59999970e-01,-2.74479869e-12,6.56526265e-01,3.56127760,7.28385077e-01,-1.84509847,1.61359972e-05,5.74851638,-1.60147923,-1,-0.9999911481066567
9.12498671e+03,3.59999969e-01,-2.69506622e-12,6.51307849e-01,3.56132104,7.25689004e-01,-1.84509847,1.59981032e-05,5.75101890,-1.59400809,-1,-0.9999886364098891
9.60952333e+03,3.59999968e-01,-2.64470480e-12,6.45902962e-01,3.56136419,7.22900263e-01,-1.84509847,1.58565468e-05,5.75360828,-1.58627657,-1,-0.9999859877647954
1.01193275e+04,3.59999967e-01,-2.59373574e-12,6.40316343e-01,3.56140686,7.20021610e-01,-1.84509847,1.57113494e-05,5.75628215,-1.57829302,-1,-0.9999832009985163
1.06554035e+04,3.59999965e-01,-2.54207698e-12,6.34547929e-01,3.56144907,7.17052969e-01,-1.84509847,1.55622639e-05,5.75904047,-1.57005609,-1,-0.9999802706213092
1.12192104e+04,3.59999964e-01,-2.48982765e-12,6.28594118e-01,3.56149056,7.13993085e-01,-1.84509847,1.54094466e-05,5.76188456,-1.56156222,-1,-0.9999771886573919
1.18120467e+04,3.59999962e-01,-2.43706830e-12,6.22457228e-01,3.56153229,7.10841180e-01,-1.84509847,1.52532310e-05,5.76481551,-1.55280777,-1,-0.9999739480087132
1.24382263e+04,3.59999961e-01,-2.38383651e-12,6.16118390e-01,3.56157368,7.07588994e-01,-1.84509847,1.50932185e-05,5.76784092,-1.54377116,-1,-0.9999705250940008
1.30963699e+04,3.59999959e-01,-2.33022418e-12,6.09589181e-01,3.56161352,7.04244704e-01,-1.84509847,1.49297469e-05,5.77095312,-1.53447368,-1,-0.9999669274529864
1.37873266e+04,3.59999958e-01,-2.27632362e-12,6.02869380e-01,3.56165097,7.00809899e-01,-1.84509847,1.47628816e-05,5.77415065,-1.52492073,-1,-0.9999631504441951
1.45175447e+04,3.59999956e-01,-2.22196311e-12,5.95930398e-01,3.56168495,6.97272458e-01,-1.84509847,1.45912718e-05,5.77744555,-1.51507618,-1,-0.9999591588189845
1.52838138e+04,3.59999954e-01,-2.16760616e-12,5.88801694e-01,3.56171650,6.93645001e-01,-1.84509847,1.44170865e-05,5.78082542,-1.50497726,-1,-0.9999549701265134
1.60916760e+04,3.59999953e-01,-2.11305338e-12,5.81401566e-01,3.56174634,6.89885263e-01,-1.84509847,1.42404810e-05,5.78424606,-1.49464894,-1,-0.9999505540717425
1.69398074e+04,3.59999951e-01,-2.05769736e-12,5.73849410e-01,3.56177570,6.86050463e-01,-1.84509847,1.40555620e-05,5.78783210,-1.48394454,-1,-0.9999459178915681
1.78351974e+04,3.59999949e-01,-2.00333271e-12,5.66147930e-01,3.56180818,6.82134750e-01,-1.84509847,1.38740309e-05,5.79148475,-1.47302648,-1,-0.9999410233795074
1.87745807e+04,3.59999947e-01,-1.94915027e-12,5.58171809e-01,3.56183041,6.78102239e-01,-1.84509847,1.36902874e-05,5.79522999,-1.46181236,-1,-0.9999358883848218
1.97643490e+04,3.59999945e-01,-1.89439423e-12,5.50023746e-01,3.56185355,6.73981930e-01,-1.84509847,1.34983739e-05,5.79907559,-1.45031310,-1,-0.9999304779682641
2.08065586e+04,3.59999944e-01,-1.84045626e-12,5.41658728e-01,3.56186996,6.69766594e-01,-1.84509847,1.33077016e-05,5.80300936,-1.43854712,-1,-0.9999247808893856
2.19018303e+04,3.59999942e-01,-1.78679270e-12,5.33094333e-01,3.56188068,6.65462957e-01,-1.84509847,1.31138919e-05,5.80703004,-1.42652230,-1,-0.9999187937546785
2.30535498e+04,3.59999940e-01,-1.73360195e-12,5.24377881e-01,3.56188699,6.61092117e-01,-1.84509847,1.29171322e-05,5.81111632,-1.41430108,-1,-0.9999124980567332
2.42666866e+04,3.59999938e-01,-1.68108747e-12,5.15415171e-01,3.56188626,6.56612224e-01,-1.84509847,1.27205303e-05,5.81530477,-1.40177188,-1,-0.9999058666305403
2.55430844e+04,3.59999935e-01,-1.62870593e-12,5.06273757e-01,3.56188224,6.52049542e-01,-1.84509847,1.25192057e-05,5.81957439,-1.38899802,-1,-0.9998988893977966
2.68855579e+04,3.59999933e-01,-1.57675819e-12,4.96935523e-01,3.56187663,6.47391660e-01,-1.84509847,1.23162243e-05,5.82393465,-1.37595088,-1,-0.9998915509723765
2.82979121e+04,3.59999931e-01,-1.52594982e-12,4.87440866e-01,3.56186530,6.42666976e-01,-1.84509847,1.21141027e-05,5.82835996,-1.36270841,-1,-0.9998838305548311
2.97833586e+04,3.59999929e-01,-1.47595581e-12,4.77711889e-01,3.56184231,6.37848473e-01,-1.84509847,1.19108380e-05,5.83287501,-1.34919837,-1,-0.999875710589442
3.13459210e+04,3.59999927e-01,-1.42637686e-12,4.67799327e-01,3.56181338,6.32950053e-01,-1.84509847,1.17045486e-05,5.83746803,-1.33545376,-1,-0.9998671690818169
3.29897269e+04,3.59999924e-01,-1.37778342e-12,4.57740738e-01,3.56178725,6.27973019e-01,-1.84509847,1.14992501e-05,5.84213630,-1.32148381,-1,-0.9998581834690639
3.47185781e+04,3.59999922e-01,-1.33016825e-12,4.47483757e-01,3.56174713,6.22924765e-01,-1.84509847,1.12933635e-05,5.84687401,-1.30730554,-1,-0.9998487329692263
3.65367467e+04,3.59999920e-01,-1.28329440e-12,4.37054093e-01,3.56169978,6.17804642e-01,-1.84509847,1.10855100e-05,5.85168176,-1.29291354,-1,-0.999838794229525
3.84483611e+04,3.59999917e-01,-1.23740966e-12,4.26415159e-01,3.56164025,6.12604235e-01,-1.84509847,1.08781697e-05,5.85656721,-1.27828822,-1,-0.9998283446826949
4.04595095e+04,3.59999915e-01,-1.19236049e-12,4.15634855e-01,3.56157524,6.07344094e-01,-1.84509847,1.06690210e-05,5.86151177,-1.26348522,-1,-0.9998173510485246
4.25767268e+04,3.59999912e-01,-1.14848995e-12,4.04662833e-01,3.56150357,6.02001429e-01,-1.84509847,1.04622619e-05,5.86653657,-1.24843696,-1,-0.9998057776049861
4.48025583e+04,3.59999910e-01,-1.10573587e-12,3.93557302e-01,3.56142760,5.96600599e-01,-1.84509847,1.02566517e-05,5.87161901,-1.23321260,-1,-0.9997936104385873
4.71415793e+04,3.59999907e-01,-1.06377707e-12,3.82252314e-01,3.56133199,5.91139324e-01,-1.84509847,1.00483851e-05,5.87676079,-1.21780882,-1,-0.9997808245391526
4.96015374e+04,3.59999905e-01,-1.02301333e-12,3.70773748e-01,3.56122743,5.85609170e-01,-1.84509847,9.84241749e-06,5.88197054,-1.20219903,-1,-0.9997673775556155
5.21913705e+04,3.59999902e-01,-9.83228738e-13,3.59150728e-01,3.56111575,5.80021021e-01,-1.84509847,9.63605016e-06,5.88723813,-1.18641547,-1,-0.9997532206303169
5.49127451e+04,3.59999900e-01,-9.44587803e-13,3.47433177e-01,3.56100019,5.74393356e-01,-1.84509847,9.43171686e-06,5.89254568,-1.17051298,-1,-0.9997383446535901
5.77745667e+04,3.59999897e-01,-9.07091644e-13,3.35559516e-01,3.56087915,5.68698606e-01,-1.84509847,9.23000220e-06,5.89791898,-1.15441386,-1,-0.9997227009448858
6.07857992e+04,3.59999894e-01,-8.70845212e-13,3.23523726e-01,3.56073849,5.62962042e-01,-1.84509847,9.03014969e-06,5.90333422,-1.13818697,-1,-0.9997062405044198
6.39498161e+04,3.59999892e-01,-8.35530083e-13,3.11346750e-01,3.56058331,5.57183904e-01,-1.84509847,8.82934085e-06,5.90879158,-1.12183052,-1,-0.999688944891472
6.72791043e+04,3.59999889e-01,-8.01399925e-13,2.99035342e-01,3.56041730,5.51360226e-01,-1.84509847,8.63135463e-06,5.91429517,-1.10533338,-1,-0.9996707458483193
7.07791333e+04,3.59999886e-01,-7.68350537e-13,2.86608421e-01,3.56024055,5.45500266e-01,-1.84509847,8.43466591e-06,5.91983629,-1.08872224,-1,-0.9996516134767791
7.44598961e+04,3.59999884e-01,-7.36519063e-13,2.74090277e-01,3.56005154,5.39619205e-01,-1.84509847,8.24106932e-06,5.92540087,-1.07203890,-1,-0.9996314931516502
7.83314806e+04,3.59999881e-01,-7.05725335e-13,2.61484801e-01,3.55985415,5.33711256e-01,-1.84509847,8.04929542e-06,5.93099348,-1.05527091,-1,-0.9996103297289749
8.24018782e+04,3.59999878e-01,-6.76072019e-13,2.48781871e-01,3.55964200,5.27784080e-01,-1.84509847,7.86017209e-06,5.93660695,-1.03843856,-1,-0.9995880795249911
8.66836309e+04,3.59999875e-01,-6.47519603e-13,2.36014285e-01,3.55941831,5.21847674e-01,-1.84509847,7.67377585e-06,5.94223159,-1.02157069,-1,-0.99956467398078
9.11880056e+04,3.59999872e-01,-6.20283189e-13,2.23246286e-01,3.55919064,5.15919008e-01,-1.84509847,7.49247267e-06,5.94785151,-1.00471335,-1,-0.9995400515075615
9.59238204e+04,3.59999870e-01,-5.94076459e-13,2.10418648e-01,3.55894672,5.09993038e-01,-1.84509847,7.31350469e-06,5.95347194,-9.87853612e-01,-1,-0.9995141639025449
1.00909550e+05,3.59999867e-01,-5.69059298e-13,1.97643640e-01,3.55869451,5.04109943e-01,-1.84509847,7.13831278e-06,5.95905469,-9.71105700e-01,-1,-0.999486910176617
1.06150525e+05,3.59999864e-01,-5.45176913e-13,1.84889102e-01,3.55843557,4.98250564e-01,-1.84509847,6.96796577e-06,5.96461812,-9.54413555e-01,-1,-0.9994582611908707
1.11671634e+05,3.59999861e-01,-5.22458621e-13,1.72241869e-01,3.55816899,4.92460103e-01,-1.84509847,6.80172866e-06,5.97011893,-9.37907235e-01,-1,-0.9994280808955927
1.17477485e+05,3.59999858e-01,-5.00994786e-13,1.59768923e-01,3.55789746,4.86766704e-01,-1.84509847,6.64076511e-06,5.97552989,-9.21672503e-01,-1,-0.9993963441018578
1.23597605e+05,3.59999855e-01,-4.80813280e-13,1.47536420e-01,3.55762872,4.81187919e-01,-1.84509847,6.48662445e-06,5.98083407,-9.05753646e-01,-1,-0.999362889404851
1.30038825e+05,3.59999852e-01,-4.61909309e-13,1.35589579e-01,3.55736022,4.75751502e-01,-1.84509847,6.33934308e-06,5.98600485,-8.90232960e-01,-1,-0.9993276794639586
1.36822687e+05,3.59999849e-01,-4.44261127e-13,1.23998566e-01,3.55708985,4.70496728e-01,-1.84509847,6.19818146e-06,5.99100496,-8.75221472e-01,-1,-0.9992905965231427
1.43979796e+05,3.59999846e-01,-4.27905322e-13,1.12862197e-01,3.55682802,4.65452215e-01,-1.84509847,6.06450351e-06,5.99580741,-8.60802444e-01,-1,-0.9992514732848663
1.51518342e+05,3.59999843e-01,-4.12877372e-13,1.02229929e-01,3.55657580,4.60640525e-01,-1.84509847,5.93943931e-06,6.00039009,-8.47044757e-01,-1,-0.999210264979751
1.59466071e+05,3.59999840e-01,-3.99189333e-13,9.22156474e-02,3.55633385,4.56117270e-01,-1.84509847,5.82250263e-06,6.00469988,-8.34105145e-01,-1,-0.9991668199385446
1.67849246e+05,3.59999836e-01,-3.86815319e-13,8.28736642e-02,3.55611053,4.51892916e-01,-1.84509847,5.71536990e-06,6.00872618,-8.22019399e-01,-1,-0.9991209945985872
1.76689742e+05,3.59999833e-01,-3.75663320e-13,7.42156439e-02,3.55590160,4.47981774e-01,-1.84509847,5.61674666e-06,6.01245483,-8.10825331e-01,-1,-0.9990726693835472
1.86013572e+05,3.59999830e-01,-3.65726835e-13,6.62667823e-02,3.55570912,4.44392306e-01,-1.84509847,5.52767838e-06,6.01587772,-8.00548100e-01,-1,-0.9990217020973513
1.95829519e+05,3.59999826e-01,-3.56817105e-13,5.89565426e-02,3.55552996,4.41095510e-01,-1.84509847,5.44631524e-06,6.01902218,-7.91105756e-01,-1,-0.9989680447290774
2.06204184e+05,3.59999822e-01,-3.48867568e-13,5.22743690e-02,3.55536812,4.38078102e-01,-1.84509847,5.37307602e-06,6.02190087,-7.82461630e-01,-1,-0.9989113332145773
2.17111209e+05,3.59999819e-01,-3.41692865e-13,4.61014429e-02,3.55521675,4.35294379e-01,-1.84509847,5.30587568e-06,6.02455713,-7.74483435e-01,-1,-0.9988517116358139
2.28635966e+05,3.59999815e-01,-3.35212913e-13,4.03578659e-02,3.55507603,4.32704022e-01,-1.84509847,5.24490871e-06,6.02702937,-7.67056383e-01,-1,-0.9987887133198474
2.40762240e+05,3.59999811e-01,-3.29200879e-13,3.48932594e-02,3.55494274,4.30238299e-01,-1.84509847,5.18800040e-06,6.02938331,-7.59985285e-01,-1,-0.9987224269034876
2.53530883e+05,3.59999807e-01,-3.23507686e-13,2.95810442e-02,3.55481261,4.27842458e-01,-1.84509847,5.13380296e-06,6.03167090,-7.53112928e-01,-1,-0.998652629075544
2.66962354e+05,3.59999802e-01,-3.17999029e-13,2.42964421e-02,3.55468328,4.25458814e-01,-1.84509847,5.08117244e-06,6.03394755,-7.46274074e-01,-1,-0.9985792080000322
2.81093669e+05,3.59999798e-01,-3.12532602e-13,1.89205609e-02,3.55455330,4.23030833e-01,-1.84509847,5.02871037e-06,6.03626695,-7.39306130e-01,-1,-0.9985019613346672
2.96012780e+05,3.59999793e-01,-3.06934338e-13,1.32961599e-02,3.55441728,4.20490665e-01,-1.84509847,4.97447379e-06,6.03869408,-7.32013602e-01,-1,-0.998420408303335
3.11701601e+05,3.59999789e-01,-3.01073821e-13,7.30649429e-03,3.55427313,4.17784134e-01,-1.84509847,4.91703731e-06,6.04128073,-7.24243713e-01,-1,-0.9983346477703798
3.28204124e+05,3.59999784e-01,-2.94848564e-13,8.19123465e-04,3.55412032,4.14846074e-01,-1.84509847,4.85542133e-06,6.04408935,-7.15806082e-01,-1,-0.998244439260283
3.45541109e+05,3.59999779e-01,-2.88093078e-13,-6.33424673e-03,3.55394819,4.11613657e-01,-1.84509847,4.78702507e-06,6.04717989,-7.06521268e-01,-1,-0.9981496692916896
3.63722091e+05,3.59999774e-01,-2.80695292e-13,-1.42772275e-02,3.55375736,4.08023816e-01,-1.84509847,4.71045579e-06,6.05061287,-6.96207320e-01,-1,-0.9980502857429852
3.82888055e+05,3.59999768e-01,-2.72441558e-13,-2.32944402e-02,3.55354896,4.03932010e-01,-1.84509847,4.62340440e-06,6.05452681,-6.84448847e-01,-1,-0.9979455179412975
4.02934051e+05,3.59999763e-01,-2.63306556e-13,-3.35465023e-02,3.55330157,3.99300765e-01,-1.84509847,4.52382994e-06,6.05895773,-6.71136172e-01,-1,-0.9978359395797
4.23940822e+05,3.59999758e-01,-2.53106499e-13,-4.52905590e-02,3.55302852,3.93974830e-01,-1.84509847,4.41012875e-06,6.06405474,-6.55819324e-01,-1,-0.9977211092889707
4.45897997e+05,3.59999752e-01,-2.41816828e-13,-5.88858018e-02,3.55270860,3.87817055e-01,-1.84509847,4.27981541e-06,6.06995009,-6.38100194e-01,-1,-0.9976010837605903
4.68761351e+05,3.59999747e-01,-2.29430797e-13,-7.44792248e-02,3.55234702,3.80743500e-01,-1.84509847,4.13190494e-06,6.07672565,-6.17730778e-01,-1,-0.9974761047437359
4.92539197e+05,3.59999742e-01,-2.16046935e-13,-9.22502321e-02,3.55194217,3.72667691e-01,-1.84509847,3.96575012e-06,6.08446644,-5.94459403e-01,-1,-0.9973461267966686
5.17213604e+05,3.59999737e-01,-2.02040588e-13,-1.12058567e-01,3.55150272,3.63642428e-01,-1.84509847,3.78435876e-06,6.09312225,-5.68435990e-01,-1,-0.9972112479364487
5.42855149e+05,3.59999732e-01,-1.87972745e-13,-1.33373453e-01,3.55104398,3.53902470e-01,-1.84509847,3.59351818e-06,6.10246842,-5.40331461e-01,-1,-0.997071082364734
5.69621903e+05,3.59999727e-01,-1.74461983e-13,-1.55404771e-01,3.55058565,3.43803465e-01,-1.84509847,3.40155648e-06,6.11216420,-5.11169971e-01,-1,-0.9969247660106547
5.97711153e+05,3.59999722e-01,-1.61936990e-13,-1.77456194e-01,3.55013708,3.33674905e-01,-1.84509847,3.21463602e-06,6.12189536,-4.81892907e-01,-1,-0.9967712204350941
6.27268933e+05,3.59999718e-01,-1.50555218e-13,-1.99109086e-01,3.54971309,3.23696431e-01,-1.84509847,3.03723744e-06,6.13149756,-4.53008395e-01,-1,-0.9966096473655962
6.58382504e+05,3.59999713e-01,-1.40160807e-13,-2.20276182e-01,3.54931221,3.13914636e-01,-1.84509847,2.86784651e-06,6.14101539,-4.24505518e-01,-1,-0.9964395698032925
6.91176854e+05,3.59999709e-01,-1.30759938e-13,-2.40917648e-01,3.54893443,3.04349462e-01,-1.84509847,2.70884599e-06,6.15022306,-3.96803473e-01,-1,-0.996260304520457
7.25698353e+05,3.59999704e-01,-1.22130286e-13,-2.61148680e-01,3.54857644,2.94949930e-01,-1.84509847,2.55941326e-06,6.15927579,-3.69556957e-01,-1,-0.9960715980425991
7.62035024e+05,3.59999700e-01,-1.14206721e-13,-2.80985612e-01,3.54824151,2.85701316e-01,-1.84509847,2.42290336e-06,6.16818764,-3.42731961e-01,-1,-0.9958729692054942
8.00275024e+05,3.59999696e-01,-1.06922038e-13,-3.00475602e-01,3.54792333,2.76592701e-01,-1.84509847,2.29358084e-06,6.17696912,-3.16299715e-01,-1,-0.995663936112427
8.40515221e+05,3.59999692e-01,-1.00207373e-13,-3.19641644e-01,3.54762162,2.67613085e-01,-1.84509847,2.17100865e-06,6.18563047,-2.90227717e-01,-1,-0.9954439692493374
8.82859404e+05,3.59999688e-01,-9.40017201e-14,-3.38498905e-01,3.54733775,2.58752193e-01,-1.84509847,2.05511349e-06,6.19418081,-2.64484770e-01,-1,-0.9952125012695808
9.27411185e+05,3.59999684e-01,-8.82677016e-14,-3.57084306e-01,3.54706653,2.50001948e-01,-1.84509847,1.94539604e-06,6.20262768,-2.39045606e-01,-1,-0.9949689657940556
9.74276683e+05,3.59999680e-01,-8.29468050e-14,-3.75422579e-01,3.54680596,2.41353943e-01,-1.84509847,1.84138824e-06,6.21098015,-2.13883640e-01,-1,-0.9947127827395297
1.02357973e+06,3.59999676e-01,-7.79923756e-14,-3.93496570e-01,3.54656534,2.32798191e-01,-1.84509847,1.74304995e-06,6.21924805,-1.88979561e-01,-1,-0.9944432751973736
1.07544922e+06,3.59999672e-01,-7.34127483e-14,-4.11355875e-01,3.54633431,2.24330591e-01,-1.84509847,1.65068023e-06,6.22743425,-1.64318710e-01,-1,-0.994159738588312
1.13002286e+06,3.59999668e-01,-6.91388455e-14,-4.29001911e-01,3.54611577,2.15944662e-01,-1.84509847,1.56346623e-06,6.23554407,-1.39884264e-01,-1,-0.9938614201581567
1.18741761e+06,3.59999664e-01,-6.51522748e-14,-4.46465636e-01,3.54590488,2.07634579e-01,-1.84509847,1.48114458e-06,6.24358341,-1.15660302e-01,-1,-0.9935476805630123
1.24776609e+06,3.59999661e-01,-6.14292659e-14,-4.63753515e-01,3.54570305,1.99394293e-01,-1.84509847,1.40363353e-06,6.25155774,-9.16286633e-02,-1,-0.993217794855996
1.31126245e+06,3.59999657e-01,-5.79508503e-14,-4.80879102e-01,3.54550863,1.91220351e-01,-1.84509847,1.33068418e-06,6.25946967,-6.77800671e-02,-1,-0.9928707017459201
1.37804613e+06,3.59999653e-01,-5.46934888e-14,-4.97850432e-01,3.54532209,1.83107766e-01,-1.84509847,1.26195633e-06,6.26732459,-4.40987589e-02,-1,-0.9925056390054177
1.44826050e+06,3.59999649e-01,-5.16471638e-14,-5.14675201e-01,3.54514388,1.75051794e-01,-1.84509847,1.19741319e-06,6.27512759,-2.05710723e-02,-1,-0.9921218229243804
1.52213028e+06,3.59999646e-01,-4.87909978e-14,-5.31365408e-01,3.54497240,1.67049640e-01,-1.84509847,1.13660439e-06,6.28288132,2.80956637e-03,-1,-0.9917180251054057
1.59981054e+06,3.59999642e-01,-4.61102242e-14,-5.47933346e-01,3.54480655,1.59097385e-01,-1.84509847,1.07931744e-06,6.29058874,2.60530694e-02,-1,-0.99129339788213
1.68148787e+06,3.59999638e-01,-4.35912752e-14,-5.64369224e-01,3.54465070,1.51191144e-01,-1.84509847,1.02550995e-06,6.29825437,4.91710663e-02,-1,-0.9908469212889457
1.76741159e+06,3.59999635e-01,-4.12307653e-14,-5.80724219e-01,3.54449253,1.43329985e-01,-1.84509847,9.75007450e-07,6.30587826,7.21710424e-02,-1,-0.9903772324563244
1.85776063e+06,3.59999631e-01,-3.90057501e-14,-5.96956244e-01,3.54434531,1.35508414e-01,-1.84509847,9.27438495e-07,6.31346530,9.50610962e-02,-1,-0.9898833532908732
1.95276468e+06,3.59999628e-01,-3.69132596e-14,-6.13099562e-01,3.54420113,1.27725111e-01,-1.84509847,8.83028424e-07,6.32101616,1.17845802e-01,-1,-0.9893640282274472
2.05269610e+06,3.59999624e-01,-3.49431725e-14,-6.29155756e-01,3.54406077,1.19977733e-01,-1.84509847,8.41515559e-07,6.32853366,1.40538894e-01,-1,-0.9888177684518928
2.15774414e+06,3.59999621e-01,-3.30875342e-14,-6.45120520e-01,3.54392692,1.12263046e-01,-1.84509847,8.02980413e-07,6.33602188,1.63145261e-01,-1,-0.9882435394581207
2.26826797e+06,3.59999617e-01,-3.13396513e-14,-6.61009008e-01,3.54379630,1.04580040e-01,-1.84509847,7.67134492e-07,6.34348187,1.85669327e-01,-1,-0.987639377898431
2.38442701e+06,3.59999613e-01,-2.96901340e-14,-6.76817110e-01,3.54367151,9.69255852e-02,-1.84509847,7.33835532e-07,6.35091548,2.08114628e-01,-1,-0.9870044123278527
2.50666413e+06,3.59999610e-01,-2.81349168e-14,-6.92537545e-01,3.54355517,8.92980487e-02,-1.84509847,7.03079833e-07,6.35832426,2.30489026e-01,-1,-0.9863362218654775
2.63513854e+06,3.59999606e-01,-2.66662099e-14,-7.08183286e-01,3.54344538,8.16947396e-02,-1.84509847,6.74573926e-07,6.36571037,2.52800489e-01,-1,-0.9856339362142672
2.77030894e+06,3.59999603e-01,-2.52816355e-14,-7.23766014e-01,3.54333934,7.41154568e-02,-1.84509847,6.48214558e-07,6.37307407,2.75050722e-01,-1,-0.9848950479610473
2.91239056e+06,3.59999600e-01,-2.39730034e-14,-7.39283392e-01,3.54323885,6.65577556e-02,-1.84509847,6.23816476e-07,6.38041847,2.97246800e-01,-1,-0.9841183805840442
3.06187369e+06,3.59999596e-01,-2.27362143e-14,-7.54742853e-01,3.54314246,5.90208102e-02,-1.84509847,6.01266577e-07,6.38774376,3.19385896e-01,-1,-0.9833012539881952
3.21897846e+06,3.59999593e-01,-2.15665287e-14,-7.70142738e-01,3.54305164,5.15025007e-02,-1.84509847,5.80470280e-07,6.39505154,3.41477014e-01,-1,-0.9824424648666286
