star_age,star_mass,star_mdot,log_L,log_Teff,log_R,log_surf_z,v_wind_Km_per_s,log_center_T,log_center_Rho,phase,x
5.55491865e+02,3.19999979,-3.25963990e-10,2.74404648,3.61435855,1.66598329,-1.84509850,8.54051063e-05,5.73787114,-3.49209262,-1,-1.0
5.83846909e+02,3.19999978,-3.21767253e-10,2.74061184,3.61462518,1.66373271,-1.84509850,8.52065989e-05,5.74003989,-3.48559628,-1,-0.9999905940397481
6.12784015e+02,3.19999977,-3.17567093e-10,2.74730950,3.61761258,1.66110675,-1.84509850,1.03778761e-04,5.74228190,-3.47888361,-1,-0.9999809949973752
6.43675458e+02,3.19999976,-3.20559076e-10,2.74588005,3.61851976,1.65857765,-1.84509850,1.10429932e-04,5.74465427,-3.47177848,-1,-0.9999707476606058
6.76468333e+02,3.19999975,-3.16134689e-10,2.74210147,3.61886198,1.65600392,-1.84509850,1.10287378e-04,5.74713598,-3.46434394,-1,-0.9999598695791331
7.10933843e+02,3.19999974,-3.11790696e-10,2.73814003,3.61920295,1.65334127,-1.84509850,1.10194324e-04,5.74970384,-3.45665142,-1,-0.9999484366497001
7.47082749e+02,3.19999973,-3.07161684e-10,2.73407401,3.61956166,1.65059084,-1.84509850,1.10027368e-04,5.75235666,-3.44870456,-1,-0.9999364453026585
7.85009065e+02,3.19999972,-3.02320361e-10,2.72983152,3.61992118,1.64775055,-1.84509850,1.09800815e-04,5.75509635,-3.44049666,-1,-0.999923864351601
8.24817263e+02,3.19999971,-2.97327494e-10,2.72558176,3.62032590,1.64481622,-1.84509850,1.09557403e-04,5.75792664,-3.43201664,-1,-0.9999106591409835
8.66848430e+02,3.19999970,-2.92262465e-10,2.72098450,3.62069610,1.64177721,-1.84509850,1.09283471e-04,5.76085850,-3.42322924,-1,-0.9998967165251251
9.10916117e+02,3.19999968,-2.87053038e-10,2.71630167,3.62109171,1.63864456,-1.84509850,1.08979615e-04,5.76388102,-3.41417047,-1,-0.9998820983530526
9.57083467e+02,3.19999967,-2.81774976e-10,2.71157987,3.62152482,1.63541745,-1.84509850,1.08676484e-04,5.76699473,-3.40483847,-1,-0.9998667836789145
1.00572199e+03,3.19999966,-2.76486628e-10,2.70657791,3.62194046,1.63208520,-1.84509850,1.08369311e-04,5.77021089,-3.39519694,-1,-0.9998506492650849
1.05679691e+03,3.19999964,-2.71104443e-10,2.70148817,3.62238448,1.62865228,-1.84509850,1.08045061e-04,5.77352439,-3.38526576,-1,-0.9998337066474897
1.11031590e+03,3.19999963,-2.65685151e-10,2.69623863,3.62283716,1.62512215,-1.84509850,1.07714289e-04,5.77693231,-3.37505067,-1,-0.9998159532808344
1.16674020e+03,3.19999961,-2.60175918e-10,2.69082554,3.62330421,1.62148151,-1.84509850,1.07355928e-04,5.78044721,-3.36451345,-1,-0.9997972361621785
1.22580970e+03,3.19999960,-2.54654173e-10,2.68525138,3.62377933,1.61774418,-1.84509850,1.06996118e-04,5.78405615,-3.35369435,-1,-0.9997776415754412
1.28800417e+03,3.19999958,-2.49119880e-10,2.67954288,3.62427582,1.61389695,-1.84509850,1.06638188e-04,5.78777157,-3.34255469,-1,-0.9997570103708942
1.35327911e+03,3.19999957,-2.43574002e-10,2.67370512,3.62479132,1.60994708,-1.84509850,1.06279332e-04,5.79158679,-3.33111670,-1,-0.9997353573101165
1.42168214e+03,3.19999955,-2.37940385e-10,2.66758110,3.62528474,1.60589822,-1.84509850,1.05865534e-04,5.79549863,-3.31938785,-1,-0.9997126665965599
1.49380477e+03,3.19999953,-2.32319928e-10,2.66155056,3.62585893,1.60173458,-1.84509850,1.05481736e-04,5.79952104,-3.30732713,-1,-0.9996887420140045
1.56943394e+03,3.19999952,-2.26875459e-10,2.65529445,3.62642813,1.59746812,-1.84509850,1.05164801e-04,5.80364392,-3.29496488,-1,-0.9996636542389017
1.64878133e+03,3.19999950,-2.21222144e-10,2.64870933,3.62696570,1.59310042,-1.84509850,1.04722527e-04,5.80786593,-3.28230227,-1,-0.9996373330525749
1.73208661e+03,3.19999948,-2.15546699e-10,2.64193068,3.62750646,1.58862957,-1.84509850,1.04250715e-04,5.81218867,-3.26933744,-1,-0.9996096989514798
1.81960359e+03,3.19999946,-2.09985086e-10,2.63518726,3.62810947,1.58405184,-1.84509850,1.03837410e-04,5.81661506,-3.25606112,-1,-0.999580667741539
1.91154830e+03,3.19999944,-2.04382834e-10,2.62815672,3.62869257,1.57937038,-1.84509850,1.03369017e-04,5.82114312,-3.24247880,-1,-0.99955016776109
2.00808984e+03,3.19999942,-1.98851682e-10,2.62091672,3.62927363,1.57458825,-1.84509850,1.02904949e-04,5.82576939,-3.22860280,-1,-0.9995181429161313
2.10946151e+03,3.19999941,-1.93353219e-10,2.61360809,3.62988856,1.56970408,-1.84509850,1.02438461e-04,5.83049480,-3.21442360,-1,-0.9994845158161809
2.21589985e+03,3.19999939,-1.87843992e-10,2.60627844,3.63054929,1.56471780,-1.84509850,1.01946737e-04,5.83531940,-3.19994637,-1,-0.9994492079959809
2.32769397e+03,3.19999936,-1.82503303e-10,2.59856609,3.63116411,1.55963198,-1.84509850,1.01487635e-04,5.84024188,-3.18517229,-1,-0.9994121235517066
2.44508046e+03,3.19999934,-1.77122652e-10,2.59076527,3.63180612,1.55444755,-1.84509850,1.00972202e-04,5.84526078,-3.17011159,-1,-0.9993731840015141
2.56831319e+03,3.19999932,-1.71757916e-10,2.58278924,3.63245249,1.54916680,-1.84509850,1.00418140e-04,5.85037385,-3.15476722,-1,-0.9993323051314228
2.69767094e+03,3.19999930,-1.66566195e-10,2.57477537,3.63313805,1.54378874,-1.84509850,9.99266846e-05,5.85558184,-3.13913772,-1,-0.9992893944642846
2.83342403e+03,3.19999928,-1.61458417e-10,2.56668555,3.63385264,1.53831465,-1.84509850,9.94416718e-05,5.86088379,-3.12322408,-1,-0.9992443623293104
2.97591640e+03,3.19999926,-1.56364451e-10,2.55819841,3.63451258,1.53275120,-1.84509850,9.88868253e-05,5.86627365,-3.10704103,-1,-0.9991970946344192
3.12571039e+03,3.19999923,-1.51334644e-10,2.54982032,3.63524788,1.52709155,-1.84509850,9.83309742e-05,5.87175739,-3.09057412,-1,-0.9991474048396896
3.28281110e+03,3.19999921,-1.46416984e-10,2.54118831,3.63596426,1.52134280,-1.84509850,9.77747902e-05,5.87732870,-3.07384194,-1,-0.9990952912533448
3.44761322e+03,3.19999919,-1.41566979e-10,2.53230200,3.63665964,1.51550888,-1.84509850,9.71864076e-05,5.88298372,-3.05685640,-1,-0.9990406229484695
3.62086235e+03,3.19999916,-1.36795673e-10,2.52326769,3.63734396,1.50962308,-1.84509850,9.65558217e-05,5.88873560,-3.03964149,-1,-0.9989831525939727
3.80257073e+03,3.19999914,-1.32118160e-10,2.51437112,3.63810738,1.50364795,-1.84509850,9.59367397e-05,5.89443035,-3.02241264,-1,-0.9989228761295909
3.99346660e+03,3.19999911,-1.27629673e-10,2.50523192,3.63886109,1.49757093,-1.84509850,9.53756026e-05,5.90029088,-3.00476638,-1,-0.9988595519829075
4.19362753e+03,3.19999909,-1.23161537e-10,2.49576311,3.63956672,1.49142528,-1.84509850,9.47303057e-05,5.90621622,-2.98692113,-1,-0.9987931544223339
4.40400284e+03,3.19999906,-1.18801222e-10,2.48655577,3.64036175,1.48523155,-1.84509850,9.40827558e-05,5.91221633,-2.96888136,-1,-0.9987233685386006
4.62453232e+03,3.19999904,-1.14572227e-10,2.47697679,3.64111649,1.47893257,-1.84509850,9.34511807e-05,5.91832524,-2.95052166,-1,-0.9986502143046221
4.85623659e+03,3.19999901,-1.10411014e-10,2.46719257,3.64185334,1.47256676,-1.84509850,9.27689752e-05,5.92450556,-2.93194884,-1,-0.9985733531594301
5.09933092e+03,3.19999899,-1.06334011e-10,2.45770221,3.64270383,1.46612060,-1.84509850,9.20815680e-05,5.93076530,-2.91314071,-1,-0.9984927136934699
5.35450916e+03,3.19999896,-1.02434845e-10,2.44777802,3.64349044,1.45958529,-1.84509850,9.14385370e-05,5.93711510,-2.89406405,-1,-0.9984080657422064
5.62235036e+03,3.19999893,-9.85840702e-11,2.43773518,3.64428794,1.45296887,-1.84509850,9.07384306e-05,5.94354613,-2.87474178,-1,-0.9983192172226621
5.90332347e+03,3.19999891,-9.48601867e-11,2.42761331,3.64509118,1.44630144,-1.84509850,9.00412561e-05,5.95002779,-2.85526512,-1,-0.9982260125743284
6.19829659e+03,3.19999888,-9.12394068e-11,2.41756090,3.64594509,1.43956743,-1.84509850,8.93354485e-05,5.95657593,-2.83558751,-1,-0.9981281638303062
6.50793343e+03,3.19999885,-8.76986792e-11,2.40712381,3.64674358,1.43275190,-1.84509850,8.85911944e-05,5.96320659,-2.81566052,-1,-0.998025450824128
6.83283645e+03,3.19999882,-8.42744446e-11,2.39654180,3.64752309,1.42590187,-1.84509850,8.78352055e-05,5.96987269,-2.79563073,-1,-0.9979176737072301
7.17379213e+03,3.19999880,-8.09268992e-11,2.38596605,3.64833321,1.41899376,-1.84509850,8.70408748e-05,5.97659796,-2.77542659,-1,-0.9978045715877718
7.53174022e+03,3.19999877,-7.76959209e-11,2.37557335,3.64921882,1.41202619,-1.84509850,8.62513583e-05,5.98338311,-2.75504655,-1,-0.9976858327310528
7.90729298e+03,3.19999874,-7.46362840e-11,2.36492120,3.65006796,1.40500182,-1.84509850,8.55265950e-05,5.99022672,-2.73449054,-1,-0.997561254037645
8.30134054e+03,3.19999871,-7.16229771e-11,2.35397677,3.65087814,1.39790925,-1.84509849,8.47334824e-05,5.99713960,-2.71372962,-1,-0.997430540232838
8.71508763e+03,3.19999868,-6.87113651e-11,2.34299911,3.65168198,1.39081275,-1.84509849,8.39146642e-05,6.00405832,-2.69294779,-1,-0.9972932916825318
9.14944351e+03,3.19999865,-6.59089629e-11,2.33221741,3.65257181,1.38364223,-1.84509849,8.31089481e-05,6.01105056,-2.67194601,-1,-0.9971492067661956
9.60498420e+03,3.19999862,-6.31836128e-11,2.32101463,3.65336828,1.37644790,-1.84509849,8.22645694e-05,6.01806874,-2.65086653,-1,-0.996998094405966
1.00832070e+04,3.19999859,-6.05622978e-11,2.30992717,3.65422588,1.36918898,-1.84509849,8.14297857e-05,6.02515216,-2.62959346,-1,-0.996839457916164
1.05850444e+04,3.19999856,-5.80425043e-11,2.29873636,3.65507825,1.36188883,-1.84509849,8.06003004e-05,6.03227850,-2.60819325,-1,-0.9966729879703827
1.11116647e+04,3.19999853,-5.56001880e-11,2.28749194,3.65594530,1.35453253,-1.84509849,7.97507427e-05,6.03946225,-2.58662187,-1,-0.9964982970191137
1.16641608e+04,3.19999850,-5.32510572e-11,2.27602586,3.65676592,1.34715825,-1.84509849,7.88990124e-05,6.04666615,-2.56499380,-1,-0.9963150225246035
1.22441781e+04,3.19999847,-5.09878085e-11,2.26467312,3.65763355,1.33974661,-1.84509849,7.80379244e-05,6.05390838,-2.54324921,-1,-0.9961226186733099
1.28527306e+04,3.19999844,-4.88199741e-11,2.25316883,3.65847929,1.33230298,-1.84509849,7.71921747e-05,6.06118423,-2.52140665,-1,-0.9959207491002567
1.34912464e+04,3.19999841,-4.67138328e-11,2.24154767,3.65931102,1.32482894,-1.84509848,7.63115098e-05,6.06849169,-2.49946941,-1,-0.9957089400748503
1.41618798e+04,3.19999838,-4.47183875e-11,2.23022253,3.66023327,1.31732188,-1.84509848,7.54696032e-05,6.07583329,-2.47742861,-1,-0.995486476970791
1.48654530e+04,3.19999835,-4.27921039e-11,2.21856254,3.66109360,1.30977122,-1.84509848,7.46238683e-05,6.08322048,-2.45525098,-1,-0.995253087047168
1.56038351e+04,3.19999832,-4.09464691e-11,2.20684095,3.66193620,1.30222523,-1.84509848,7.37799024e-05,6.09060532,-2.43308379,-1,-0.9950081502844778
1.63788583e+04,3.19999829,-3.91646559e-11,2.19518491,3.66281014,1.29464932,-1.84509848,7.29175344e-05,6.09802157,-2.41082468,-1,-0.9947510589037173
1.71921742e+04,3.19999826,-3.74640204e-11,2.18346211,3.66367008,1.28706805,-1.84509848,7.20722012e-05,6.10544503,-2.38854352,-1,-0.9944812650346752
1.80457886e+04,3.19999823,-3.58297058e-11,2.17176921,3.66454111,1.27947954,-1.84509848,7.12192646e-05,6.11287801,-2.36623478,-1,-0.9941981033116029
1.89413659e+04,3.19999820,-3.42731321e-11,2.15991024,3.66536815,1.27189597,-1.84509848,7.03913802e-05,6.12030816,-2.34393422,-1,-0.9939010216182618
1.98818188e+04,3.19999817,-3.27743061e-11,2.14824571,3.66624077,1.26431847,-1.84509848,6.95409511e-05,6.12773408,-2.32164845,-1,-0.9935890537512337
2.08694085e+04,3.19999814,-3.13550905e-11,2.13654505,3.66710533,1.25673902,-1.84509848,6.87295087e-05,6.13516396,-2.29935214,-1,-0.993261449623257
2.19059235e+04,3.19999810,-2.99943007e-11,2.12474277,3.66791259,1.24922336,-1.84509848,6.79077279e-05,6.14253408,-2.27723451,-1,-0.9929176159515309
2.29943332e+04,3.19999807,-2.86979959e-11,2.11309174,3.66873857,1.24174588,-1.84509848,6.70931298e-05,6.14986900,-2.25522583,-1,-0.9925565677240635
2.41372273e+04,3.19999804,-2.74696208e-11,2.10149430,3.66953655,1.23435120,-1.84509848,6.62953021e-05,6.15712460,-2.23345865,-1,-0.9921774458832826
2.53379853e+04,3.19999801,-2.63139394e-11,2.09015448,3.67035194,1.22705052,-1.84509848,6.55254641e-05,6.16428896,-2.21196503,-1,-0.9917791293784617
2.65990568e+04,3.19999798,-2.52128588e-11,2.07883640,3.67111129,1.21987278,-1.84509847,6.47516293e-05,6.17133483,-2.19082781,-1,-0.9913608056261242
2.79251535e+04,3.19999794,-2.41930312e-11,2.06798632,3.67190536,1.21285960,-1.84509847,6.40266539e-05,6.17822073,-2.17017177,-1,-0.9909209116569825
2.93188591e+04,3.19999791,-2.32407185e-11,2.05732257,3.67265576,1.20602691,-1.84509847,6.33359239e-05,6.18493182,-2.15004060,-1,-0.9904585904037896
3.07842215e+04,3.19999788,-2.23492782e-11,2.04692657,3.67334074,1.19945895,-1.84509847,6.26523730e-05,6.19138489,-2.13068468,-1,-0.9899724990935805
3.23251632e+04,3.19999784,-2.15240947e-11,2.03700317,3.67401420,1.19315034,-1.84509847,6.19989666e-05,6.19758430,-2.11208964,-1,-0.9894613365511892
3.39461941e+04,3.19999781,-2.07686451e-11,2.02767625,3.67467291,1.18716945,-1.84509847,6.13801399e-05,6.20346259,-2.09445950,-1,-0.9889236067486021
3.56536607e+04,3.19999778,-2.00892358e-11,2.01885941,3.67528851,1.18152984,-1.84509847,6.08287968e-05,6.20900638,-2.07783279,-1,-0.9883572044192315
3.74477838e+04,3.19999774,-1.94694084e-11,2.01046600,3.67583626,1.17623764,-1.84509847,6.03146038e-05,6.21420942,-2.06223095,-1,-0.987762056319106
3.93363724e+04,3.19999770,-1.88957185e-11,2.00263452,3.67635746,1.17127950,-1.84509847,5.98035969e-05,6.21908482,-2.04761374,-1,-0.9871355720398451
4.13245726e+04,3.19999767,-1.83859765e-11,1.99538991,3.67686089,1.16665033,-1.84509847,5.93631001e-05,6.22363740,-2.03396451,-1,-0.9864760445126096
4.34140614e+04,3.19999763,-1.79135533e-11,1.98837885,3.67731031,1.16224596,-1.84509847,5.89512025e-05,6.22796968,-2.02097687,-1,-0.9857829174414774
4.56106480e+04,3.19999759,-1.74715977e-11,1.98182586,3.67778865,1.15801279,-1.84509847,5.85555292e-05,6.23213424,-2.00849161,-1,-0.9850542637934913
4.79177440e+04,3.19999755,-1.70541622e-11,1.97530823,3.67823393,1.15386340,-1.84509847,5.81921207e-05,6.23621738,-1.99625022,-1,-0.9842889518696846
5.03418149e+04,3.19999751,-1.66465523e-11,1.96869249,3.67865449,1.14971443,-1.84509847,5.78340972e-05,6.24030094,-1.98400775,-1,-0.9834848369286838
5.28901174e+04,3.19999747,-1.62320414e-11,1.96178231,3.67908465,1.14539900,-1.84509847,5.74616854e-05,6.24454905,-1.97127303,-1,-0.9826395117715526
5.55625177e+04,3.19999743,-1.57996204e-11,1.95451642,3.67955186,1.14083164,-1.84509847,5.70525540e-05,6.24904569,-1.95779251,-1,-0.9817530207825453
5.83642968e+04,3.19999738,-1.53477622e-11,1.94670659,3.68007151,1.13588743,-1.84509847,5.66249371e-05,6.25391384,-1.94319907,-1,-0.9808236121436753
6.12993385e+04,3.19999734,-1.48661399e-11,1.93813361,3.68065440,1.13043516,-1.84509847,5.61645943e-05,6.25928257,-1.92710533,-1,-0.9798499975173744
6.43686651e+04,3.19999730,-1.43430709e-11,1.92847972,3.68126717,1.12438267,-1.84509847,5.56413970e-05,6.26524295,-1.90923770,-1,-0.9788318377853835
6.75816214e+04,3.19999725,-1.37716823e-11,1.91765076,3.68198814,1.11752625,-1.84509847,5.50475325e-05,6.27199578,-1.88899553,-1,-0.977766033082389
7.09319641e+04,3.19999721,-1.31508690e-11,1.90556986,3.68281750,1.10982708,-1.84509847,5.43660000e-05,6.27957967,-1.86626097,-1,-0.9766546544413836
7.44204308e+04,3.19999716,-1.24966341e-11,1.89185357,3.68367360,1.10125675,-1.84509847,5.36456121e-05,6.28802342,-1.84094762,-1,-0.9754974571850435
7.80558972e+04,3.19999712,-1.18111725e-11,1.87690598,3.68460780,1.09191455,-1.84509847,5.28341086e-05,6.29722970,-1.81334908,-1,-0.974291497058322
8.18470578e+04,3.19999707,-1.11303407e-11,1.86114563,3.68564252,1.08196492,-1.84509847,5.20244156e-05,6.30703711,-1.78394914,-1,-0.9730338899139958
8.58097377e+04,3.19999703,-1.04673712e-11,1.84482400,3.68665523,1.07177869,-1.84509847,5.11866693e-05,6.31699396,-1.75374743,-1,-0.9717193862359089
8.99630571e+04,3.19999699,-9.84713104e-12,1.82862103,3.68771220,1.06156326,-1.84540617,5.03727310e-05,6.32649201,-1.72280236,-1,-0.9703416434544218
9.43207449e+04,3.19999695,-9.26854880e-12,1.81240864,3.68871310,1.05145528,-1.84541918,4.96005173e-05,6.33590124,-1.69196810,-1,-0.9688961074066945
9.88946523e+04,3.19999691,-8.72728353e-12,1.79636767,3.68969045,1.04148009,-1.84542034,4.88381586e-05,6.34516291,-1.66137151,-1,-0.9673788468021908
1.03694527e+05,3.19999687,-8.22599689e-12,1.78060877,3.69071370,1.03155414,-1.84561871,4.81203291e-05,6.35418529,-1.63056949,-1,-0.965786628125253
1.08725765e+05,3.19999683,-7.75286033e-12,1.76473633,3.69167637,1.02169257,-1.84564040,4.74145377e-05,6.36305550,-1.59967628,-1,-0.9641176614099929
1.14008551e+05,3.19999679,-7.31379773e-12,1.74913862,3.69265097,1.01194453,-1.84560927,4.67484624e-05,6.37181336,-1.56897512,-1,-0.96236525096989
1.19550590e+05,3.19999675,-6.90177277e-12,1.73355910,3.69357098,1.00231475,-1.84565406,4.60850632e-05,6.38045929,-1.53846602,-1,-0.9605268408955359
1.25372166e+05,3.19999671,-6.51865568e-12,1.71836762,3.69453607,9.92788824e-01,-1.84574638,4.54520059e-05,6.38900784,-1.50808414,-1,-0.9585957025605263
1.31478595e+05,3.19999667,-6.15922668e-12,1.70310525,3.69542795,9.83373868e-01,-1.84566902,4.48380201e-05,6.39744980,-1.47784476,-1,-0.9565700725366437
1.37888227e+05,3.19999663,-5.82337930e-12,1.68801591,3.69631148,9.74062138e-01,-1.84562739,4.42437250e-05,6.40578785,-1.44770031,-1,-0.9544438637456729
1.44620983e+05,3.19999660,-5.51078843e-12,1.67330484,3.69724402,9.64841538e-01,-1.84612178,4.36570626e-05,6.41403506,-1.41760249,-1,-0.9522104679758907
1.51684070e+05,3.19999656,-5.21500043e-12,1.65856824,3.69812016,9.55720950e-01,-1.84613278,4.30877897e-05,6.42218568,-1.38756442,-1,-0.9498674945148883
1.59102403e+05,3.19999652,-4.94217644e-12,1.64411795,3.69900559,9.46724958e-01,-1.84724010,4.25152716e-05,6.43024790,-1.35775156,-1,-0.9474066785368496
1.66883079e+05,3.19999648,-4.68231359e-12,1.62965894,3.69985810,9.37790419e-01,-1.84710444,4.19912267e-05,6.43822257,-1.32773125,-1,-0.9448256658186631
1.75052056e+05,3.19999645,-4.43875033e-12,1.61548961,3.70073949,9.28942981e-01,-1.84705189,4.14845049e-05,6.44612007,-1.29768969,-1,-0.9421158455496308
1.83617913e+05,3.19999641,-4.21070887e-12,1.60117065,3.70153460,9.20193275e-01,-1.84621516,4.10309200e-05,6.45393686,-1.26764814,-1,-0.9392743718962918
1.92617834e+05,3.19999637,-3.99748742e-12,1.58731462,3.70240565,9.11523157e-01,-1.84747177,4.05121470e-05,6.46169498,-1.23753210,-1,-0.9362889101493082
2.02064772e+05,3.19999634,-3.79628112e-12,1.57350011,3.70324155,9.02944098e-01,-1.84725780,4.00636894e-05,6.46939090,-1.20736233,-1,-0.9331551635280738
2.11975779e+05,3.19999630,-3.60688576e-12,1.55973147,3.70404204,8.94458795e-01,-1.84642438,3.96506190e-05,6.47702893,-1.17712084,-1,-0.9298674755280806
2.22378592e+05,3.19999626,-3.42842146e-12,1.54621384,3.70486131,8.86061455e-01,-1.84572353,3.92420723e-05,6.48462046,-1.14677168,-1,-0.9264166452071785
2.33313167e+05,3.19999623,-3.26285887e-12,1.53318785,3.70576275,8.77745582e-01,-1.84789614,3.87590778e-05,6.49217610,-1.11627506,-1,-0.9227894183257398
2.44781975e+05,3.19999619,-3.10698123e-12,1.52003578,3.70658575,8.69523540e-01,-1.84769682,3.83829606e-05,6.49969078,-1.08565958,-1,-0.9189849752014613
2.56814611e+05,3.19999616,-2.95824388e-12,1.50703549,3.70739829,8.61398305e-01,-1.84680673,3.80199941e-05,6.50717218,-1.05489359,-1,-0.914993498554791
2.69460021e+05,3.19999612,-2.82115334e-12,1.49434450,3.70824230,8.53364799e-01,-1.84799042,3.76262751e-05,6.51463402,-1.02393048,-1,-0.9107987519753571
2.82738258e+05,3.19999608,-2.69068818e-12,1.48230846,3.70920520,8.45420986e-01,-1.85047951,3.71899701e-05,6.52208155,-9.92747561e-01,-1,-0.9063940834642799
2.96653270e+05,3.19999605,-2.56897321e-12,1.46955134,3.70992789,8.37597049e-01,-1.84706851,3.69826415e-05,6.52950029,-9.61400095e-01,-1,-0.9017781833875105
3.11293582e+05,3.19999601,-2.45425796e-12,1.45798371,3.71090395,8.29861109e-01,-1.85167214,3.65090643e-05,6.53692943,-9.29736759e-01,-1,-0.8969216861538231
3.26647826e+05,3.19999597,-2.34784926e-12,1.44612191,3.71175154,8.22235026e-01,-1.85059770,3.62716581e-05,6.54436129,-8.97821008e-01,-1,-0.8918283627662229
3.42770637e+05,3.19999594,-2.24643796e-12,1.43435231,3.71255851,8.14736285e-01,-1.84892418,3.60389362e-05,6.55179879,-8.65627539e-01,-1,-0.8864800896542315
