star_age,star_mass,star_mdot,log_L,log_Teff,log_R,log_surf_z,v_wind_Km_per_s,log_center_T,log_center_Rho,phase,x
1.68210878e+02,1.99999719e+01,-1.41922715e-07,4.15723111,3.61012447,2.38104376,-1.84509864,3.82015564e-03,5.73148298,-4.79171669,-1,-1.0
1.74466632e+02,1.99999710e+01,-1.40356560e-07,4.15473846,3.61037349,2.37929940,-1.84509865,3.80885192e-03,5.73314915,-4.78585230,-1,-0.999860407977412
1.80923497e+02,1.99999701e+01,-1.38771335e-07,4.15217984,3.61062517,2.37751673,-1.84509865,3.79726189e-03,5.73485184,-4.77983921,-1,-0.9997163283277124
1.87596176e+02,1.99999692e+01,-1.37163661e-07,4.14954170,3.61088599,2.37567603,-1.84509865,3.78564644e-03,5.73661119,-4.77360514,-1,-0.9995674329655083
1.94499216e+02,1.99999682e+01,-1.35527418e-07,4.14681761,3.61115957,2.37376681,-1.84509866,3.77400414e-03,5.73843754,-4.76711168,-1,-0.9994133972864191
2.01683499e+02,1.99999673e+01,-1.33837133e-07,4.14404464,3.61142478,2.37184990,-1.84509866,3.76026824e-03,5.74026577,-4.76057948,-1,-0.9992530859003234
2.09150058e+02,1.99999663e+01,-1.32147342e-07,4.14125210,3.61170936,2.36988448,-1.84509866,3.74691514e-03,5.74214135,-4.75384947,-1,-0.9990864757566729
2.16880824e+02,1.99999653e+01,-1.30468984e-07,4.13837296,3.61199438,2.36787487,-1.84509867,3.73401979e-03,5.74406016,-4.74693814,-1,-0.9989139700503913
2.24888091e+02,1.99999643e+01,-1.28778160e-07,4.13538533,3.61229046,2.36578889,-1.84509867,3.72148906e-03,5.74605571,-4.73972527,-1,-0.9987352944509461
2.33184088e+02,1.99999632e+01,-1.27040974e-07,4.13233643,3.61259387,2.36365762,-1.84509868,3.70776867e-03,5.74809442,-4.73232628,-1,-0.9985501760782266
2.41784273e+02,1.99999621e+01,-1.25272417e-07,4.12926007,3.61289906,2.36150906,-1.84509868,3.69274898e-03,5.75014738,-4.72483919,-1,-0.998358269999634
2.50701362e+02,1.99999610e+01,-1.23525041e-07,4.12612216,3.61321237,2.35931350,-1.84509868,3.67847033e-03,5.75224779,-4.71714554,-1,-0.9981592924680516
2.59946112e+02,1.99999599e+01,-1.21781142e-07,4.12291607,3.61353247,2.35707025,-1.84509869,3.66437300e-03,5.75439623,-4.70924372,-1,-0.9979530034498422
2.69531258e+02,1.99999587e+01,-1.20020137e-07,4.11965067,3.61386152,2.35477945,-1.84509869,3.64984470e-03,5.75659288,-4.70112900,-1,-0.9977391187739197
2.79469703e+02,1.99999576e+01,-1.18248977e-07,4.11630474,3.61419416,2.35244120,-1.84509871,3.63502065e-03,5.75883833,-4.69280020,-1,-0.9975173505204161
2.89773628e+02,1.99999564e+01,-1.16465481e-07,4.11288685,3.61453258,2.35005541,-1.84509874,3.61980491e-03,5.76113309,-4.68424939,-1,-0.997287426880301
3.00456127e+02,1.99999551e+01,-1.14666463e-07,4.10942088,3.61488275,2.34762210,-1.84509876,3.60410357e-03,5.76347815,-4.67547615,-1,-0.997049055671698
3.11530082e+02,1.99999539e+01,-1.12863869e-07,4.10589272,3.61524049,2.34514253,-1.84509877,3.58821745e-03,5.76587302,-4.66647949,-1,-0.9968019494433364
3.23007999e+02,1.99999526e+01,-1.11066317e-07,4.10230392,3.61560676,2.34261560,-1.84509878,3.57241710e-03,5.76831984,-4.65724999,-1,-0.9965458291340777
3.34899531e+02,1.99999513e+01,-1.09267820e-07,4.09858882,3.61598306,2.34000544,-1.84509878,3.55703550e-03,5.77085718,-4.64764770,-1,-0.9962804793451396
3.47219649e+02,1.99999500e+01,-1.07423467e-07,4.09482723,3.61636325,2.33736427,-1.84509878,3.53972383e-03,5.77343018,-4.63786775,-1,-0.9960055660109289
3.59982517e+02,1.99999486e+01,-1.05603525e-07,4.09104136,3.61674775,2.33470233,-1.84509879,3.52261213e-03,5.77603055,-4.62794277,-1,-0.9957207730733961
3.73232816e+02,1.99999473e+01,-1.03804024e-07,4.08710474,3.61714733,2.33193487,-1.84509879,3.50683674e-03,5.77874897,-4.61752297,-1,-0.9954251035126518
3.86986823e+02,1.99999459e+01,-1.01958757e-07,4.08321345,3.61755107,2.32918175,-1.84509879,3.48827628e-03,5.78145850,-4.60708503,-1,-0.9951181941207834
4.01227519e+02,1.99999444e+01,-1.00173390e-07,4.07924867,3.61795660,2.32638828,-1.84509880,3.47134804e-03,5.78421999,-4.59639920,-1,-0.9948004246628253
4.15964071e+02,1.99999430e+01,-9.83906639e-08,4.07518053,3.61838011,2.32350721,-1.84509880,3.45493343e-03,5.78708609,-4.58527620,-1,-0.9944715905846866
4.31236516e+02,1.99999415e+01,-9.65717037e-08,4.07099557,3.61880588,2.32056317,-1.84509880,3.43708771e-03,5.79003162,-4.57380081,-1,-0.9941307984935314
4.47114359e+02,1.99999400e+01,-9.47526798e-08,4.06687244,3.61924425,2.31762488,-1.84509881,3.41799884e-03,5.79298247,-4.56223284,-1,-0.9937764974422587
4.63532581e+02,1.99999385e+01,-9.29887510e-08,4.06259701,3.61968879,2.31459808,-1.84509881,3.40115212e-03,5.79605001,-4.55019149,-1,-0.9934101382765566
4.80535268e+02,1.99999369e+01,-9.11919017e-08,4.05837916,3.62013696,2.31159281,-1.84509882,3.38166594e-03,5.79910511,-4.53811818,-1,-0.993030737253473
4.98211910e+02,1.99999353e+01,-8.94583734e-08,4.05405729,3.62059406,2.30851768,-1.84509882,3.36429775e-03,5.80226461,-4.52560432,-1,-0.992636297477014
5.16489228e+02,1.99999337e+01,-8.77398491e-08,4.04978144,3.62105141,2.30546506,-1.84509883,3.34607674e-03,5.80541623,-4.51304966,-1,-0.9922284541079969
5.35447366e+02,1.99999321e+01,-8.60594884e-08,4.04536885,3.62151807,2.30232544,-1.84509884,3.32938027e-03,5.80869973,-4.49996711,-1,-0.9918054187987566
5.55110889e+02,1.99999304e+01,-8.43587196e-08,4.04102509,3.62198814,2.29921341,-1.84509885,3.31032343e-03,5.81197769,-4.48682924,-1,-0.9913666434014545
5.75444892e+02,1.99999287e+01,-8.27171394e-08,4.03665686,3.62246349,2.29607859,-1.84509885,3.29278276e-03,5.81531473,-4.47341985,-1,-0.9909129067925535
5.96588916e+02,1.99999270e+01,-8.10965233e-08,4.03222503,3.62294994,2.29288978,-1.84509886,3.27558781e-03,5.81875703,-4.45956454,-1,-0.9904410952290222
6.18427588e+02,1.99999253e+01,-7.94635069e-08,4.02774754,3.62343563,2.28967967,-1.84509887,3.25707856e-03,5.82226162,-4.44542956,-1,-0.9899537831647828
6.41137527e+02,1.99999235e+01,-7.78793588e-08,4.02333762,3.62393366,2.28647864,-1.84509895,3.23916224e-03,5.82580563,-4.43109358,-1,-0.9894470294916271
6.64601986e+02,1.99999217e+01,-7.63327361e-08,4.01883918,3.62444094,2.28321487,-1.84509898,3.22257984e-03,5.82947355,-4.41624459,-1,-0.9889234393231612
6.88983464e+02,1.99999199e+01,-7.47830712e-08,4.01437565,3.62495243,2.27996011,-1.84509898,3.20446258e-03,5.83319222,-4.40116147,-1,-0.9883793866274025
7.14186646e+02,1.99999180e+01,-7.32731743e-08,4.00992196,3.62547277,2.27669259,-1.84509898,3.18711688e-03,5.83698502,-4.38576639,-1,-0.9878169982804453
7.40388363e+02,1.99999161e+01,-7.18244924e-08,4.00548213,3.62598240,2.27345343,-1.84509898,3.17066518e-03,5.84082146,-4.37017020,-1,-0.987232328443475
7.67443720e+02,1.99999142e+01,-7.03903604e-08,4.00103338,3.62651635,2.27016115,-1.84509898,3.15461908e-03,5.84479130,-4.35400753,-1,-0.9866286103296444
7.95591819e+02,1.99999123e+01,-6.89795103e-08,3.99664612,3.62705165,2.26689690,-1.84509899,3.13791924e-03,5.84881654,-4.33759386,-1,-0.9860005085738185
8.24671266e+02,1.99999103e+01,-6.76002343e-08,3.99220784,3.62759206,2.26359695,-1.84509899,3.12204440e-03,5.85297618,-4.32063048,-1,-0.9853516245508106
8.54882596e+02,1.99999083e+01,-6.62582905e-08,3.98795140,3.62813212,2.26038861,-1.84509900,3.10541312e-03,5.85711875,-4.30368958,-1,-0.9846774834864767
8.86158681e+02,1.99999063e+01,-6.49896119e-08,3.98366504,3.62868052,2.25714862,-1.84509901,3.09156387e-03,5.86142187,-4.28612784,-1,-0.9839795832871112
9.18565064e+02,1.99999042e+01,-6.37247667e-08,3.97953335,3.62922978,2.25398426,-1.84509916,3.07579418e-03,5.86573850,-4.26847538,-1,-0.9832564614143955
9.52210057e+02,1.99999021e+01,-6.25454573e-08,3.97547987,3.62978111,2.25085487,-1.84509920,3.06257064e-03,5.87015585,-4.25043278,-1,-0.9825057009748344
9.86997168e+02,1.99998999e+01,-6.13976623e-08,3.97152389,3.63033937,2.24776035,-1.84509917,3.04951073e-03,5.87466902,-4.23203510,-1,-0.981729455108312
1.02314950e+03,1.99998977e+01,-6.02975165e-08,3.96767376,3.63089882,2.24471638,-1.84509915,3.03707960e-03,5.87929710,-4.21322615,-1,-0.980922745454264
1.06055937e+03,1.99998955e+01,-5.92400575e-08,3.96394404,3.63146112,2.24172693,-1.84509914,3.02521992e-03,5.88402853,-4.19404727,-1,-0.980087974870566
1.09933063e+03,1.99998932e+01,-5.82345061e-08,3.96030424,3.63203180,2.23876566,-1.84509914,3.01475529e-03,5.88893003,-4.17423290,-1,-0.9792228259849669
1.13955393e+03,1.99998909e+01,-5.72597939e-08,3.95686622,3.63259863,2.23591300,-1.84509915,3.00358345e-03,5.89390693,-4.15417585,-1,-0.9783252760170237
1.18116084e+03,1.99998886e+01,-5.63542023e-08,3.95366114,3.63317772,2.23315228,-1.84509916,2.99413323e-03,5.89898467,-4.13378050,-1,-0.9773968519260934
1.22441563e+03,1.99998862e+01,-5.55268470e-08,3.95064823,3.63376376,2.23047375,-1.84509917,2.98700678e-03,5.90424585,-4.11273914,-1,-0.9764316567437517
1.26913615e+03,1.99998837e+01,-5.47337093e-08,3.94782818,3.63433942,2.22791240,-1.84509919,2.97955544e-03,5.90962197,-4.09131925,-1,-0.9754337549979375
1.31556824e+03,1.99998812e+01,-5.40253883e-08,3.94537346,3.63492749,2.22550890,-1.84509920,2.97411368e-03,5.91511306,-4.06954911,-1,-0.9743976609705695
1.36365822e+03,1.99998786e+01,-5.33926028e-08,3.94319429,3.63551009,2.22325412,-1.84509922,2.97041228e-03,5.92075152,-4.04730743,-1,-0.9733245724868451
1.41350191e+03,1.99998760e+01,-5.28323435e-08,3.94135460,3.63609448,2.22116549,-1.84509923,2.96817214e-03,5.92655314,-4.02456016,-1,-0.9722123514020093
1.46516033e+03,1.99998733e+01,-5.23522657e-08,3.93992994,3.63668589,2.21927034,-1.84509925,2.96763844e-03,5.93252870,-4.00130045,-1,-0.9710596361047813
1.51869713e+03,1.99998705e+01,-5.19648663e-08,3.93895578,3.63728026,2.21759453,-1.84509926,2.96926092e-03,5.93869170,-3.97751135,-1,-0.9698650062975854
1.57412100e+03,1.99998676e+01,-5.16728409e-08,3.93845520,3.63787152,2.21616170,-1.84509928,2.97298857e-03,5.94504579,-3.95319105,-1,-0.9686282680701951
1.63163833e+03,1.99998647e+01,-5.14896938e-08,3.93854723,3.63846098,2.21502881,-1.84509930,2.97895528e-03,5.95161518,-3.92827490,-1,-0.967344815998941
1.69103844e+03,1.99998616e+01,-5.14221443e-08,3.93925614,3.63905667,2.21419189,-1.84509931,2.98770450e-03,5.95838448,-3.90281300,-1,-0.9660193512353257
1.75271659e+03,1.99998584e+01,-5.15014083e-08,3.94072854,3.63964219,2.21375704,-1.84509932,2.99965589e-03,5.96540403,-3.87669130,-1,-0.9646430538764492
1.81645793e+03,1.99998552e+01,-5.17394771e-08,3.94304883,3.64023514,2.21373128,-1.84509934,3.01546077e-03,5.97265949,-3.84997842,-1,-0.9632207181239462
1.88227473e+03,1.99998517e+01,-5.21577516e-08,3.94627239,3.64082167,2.21417000,-1.84509934,3.03549438e-03,5.98016283,-3.82266486,-1,-0.9617520701828244
1.95046143e+03,1.99998481e+01,-5.28308834e-08,3.95068684,3.64140169,2.21521719,-1.84509935,3.06195637e-03,5.98796189,-3.79466254,-1,-0.9602305398658402
2.02059979e+03,1.99998444e+01,-5.37657588e-08,3.95623845,3.64197619,2.21684399,-1.84509935,3.09532586e-03,5.99601301,-3.76609356,-1,-0.9586654598557567
2.09304077e+03,1.99998404e+01,-5.50969992e-08,3.96336094,3.64254024,2.21927714,-1.84509934,3.13942666e-03,6.00437493,-3.73685827,-1,-0.9570489987678605
2.16739070e+03,1.99998362e+01,-5.68559192e-08,3.97208676,3.64309622,2.22252809,-1.84509933,3.19480792e-03,6.01300517,-3.70708618,-1,-0.9553899410255052
2.24355785e+03,1.99998317e+01,-5.91409260e-08,3.98264696,3.64363975,2.22672112,-1.84509931,3.26351815e-03,6.02191115,-3.67679506,-1,-0.9536903335084486
2.32126117e+03,1.99998270e+01,-6.20383913e-08,3.99523619,3.64417881,2.23193762,-1.84509929,3.34677843e-03,6.03107815,-3.64606841,-1,-0.9519564476170603
2.40026369e+03,1.99998219e+01,-6.56968128e-08,4.01004546,3.64470087,2.23829814,-1.84509926,3.44701628e-03,6.04050706,-3.61497345,-1,-0.9501935711426429
2.48009863e+03,1.99998164e+01,-7.02167040e-08,4.02709768,3.64522632,2.24577336,-1.84509922,3.56563997e-03,6.05016308,-3.58363724,-1,-0.9484121198982709
2.56050157e+03,1.99998105e+01,-7.57254141e-08,4.04631172,3.64573422,2.25436457,-1.84509916,3.70325671e-03,6.06003757,-3.55211081,-1,-0.9466179941994959
2.64112498e+03,1.99998041e+01,-8.23681746e-08,4.06761733,3.64625093,2.26398396,-1.84509910,3.86157054e-03,6.07011085,-3.52047115,-1,-0.9448189488933929
2.72185499e+03,1.99997970e+01,-9.02883073e-08,4.09076268,3.64677822,2.27450205,-1.84509903,4.04163826e-03,6.08039109,-3.48870844,-1,-0.9430175248956714
2.80283149e+03,1.99997892e+01,-9.95771431e-08,4.11536607,3.64730516,2.28574986,-1.84509897,4.24217449e-03,6.09091707,-3.45670039,-1,-0.9412106006756508
2.88417660e+03,1.99997806e+01,-1.10337453e-07,4.14113695,3.64786943,2.29750677,-1.84509891,4.46355128e-03,6.10172179,-3.42435059,-1,-0.9393954512256346
2.96616652e+03,1.99997709e+01,-1.22662230e-07,4.16776220,3.64851002,2.30953821,-1.84509886,4.70633833e-03,6.11286714,-3.39150731,-1,-0.9375659133690275
3.04909579e+03,1.99997600e+01,-1.36628364e-07,4.19497394,3.64926000,2.32164412,-1.84509881,4.97050640e-03,6.12440145,-3.35801505,-1,-0.9357154146871676
3.12119599e+03,1.99997495e+01,-1.53649735e-07,4.22710699,3.65105781,2.33411502,-1.84509876,5.29316702e-03,6.13466487,-3.32864259,-1,-0.9341065578256297
3.19199498e+03,1.99997377e+01,-1.74384441e-07,4.25890063,3.65410513,2.34391721,-1.84509873,5.75972714e-03,6.14496448,-3.29963178,-1,-0.9325267363986232
3.26968399e+03,1.99997232e+01,-1.93224149e-07,4.28686320,3.65802972,2.35004931,-1.84509870,6.22439714e-03,6.15658187,-3.26730035,-1,-0.9307931698231547
3.35031430e+03,1.99997068e+01,-2.11082688e-07,4.31209836,3.66277576,2.35317481,-1.84509868,6.73090881e-03,6.16888257,-3.23348062,-1,-0.9289939705492078
3.43138579e+03,1.99996889e+01,-2.27700512e-07,4.33510758,3.66835976,2.35351142,-1.84509867,7.29646298e-03,6.18138957,-3.19945333,-1,-0.9271849267052018
3.51150966e+03,1.99996699e+01,-2.42544156e-07,4.35590552,3.67476919,2.35109153,-1.84509866,7.93983360e-03,6.19383103,-3.16590739,-1,-0.9253970282247195
3.59029776e+03,1.99996502e+01,-2.55441864e-07,4.37477553,3.68182474,2.34641544,-1.84509865,8.68309968e-03,6.20626538,-3.13258243,-1,-0.9236389363568392
3.66907335e+03,1.99996296e+01,-2.66488226e-07,4.39181841,3.68932065,2.33994506,-1.84509864,9.58147241e-03,6.21856053,-3.10007444,-1,-0.9218811236393545
3.74756065e+03,1.99996082e+01,-2.75667043e-07,4.40723083,3.69716932,2.33195392,-1.84509864,1.07313671e-02,6.23099752,-3.06738718,-1,-0.9201297438769046
3.82696369e+03,1.99995860e+01,-2.82611567e-07,4.42073385,3.70529536,2.32245337,-1.84509864,1.22707306e-02,6.24338174,-3.03525204,-1,-0.9183579301269986
3.90602797e+03,1.99995635e+01,-2.87635081e-07,4.43280830,3.71366956,2.31174219,-1.84509865,1.43532777e-02,6.25596116,-3.00255023,-1,-0.9165936755288068
3.98625446e+03,1.99995402e+01,-2.90453966e-07,4.44305717,3.72224224,2.29972125,-1.84509862,1.71119287e-02,6.26830611,-2.97089738,-1,-0.9148034871671433
4.06553645e+03,1.99995172e+01,-2.91595912e-07,4.45223834,3.73100692,2.28678247,-1.84509863,2.07266386e-02,6.28098171,-2.93819319,-1,-0.9130343745487611
4.14668295e+03,1.99994935e+01,-2.90496471e-07,4.45948205,3.73990266,2.27261285,-1.84509862,2.53795280e-02,6.29326715,-2.90725628,-1,-0.9112236569180917
4.22829333e+03,1.99994700e+01,-2.87394946e-07,4.46523207,3.74891990,2.25745338,-1.84509862,3.12759814e-02,6.30565282,-2.87617992,-1,-0.9094025881854708
4.31061042e+03,1.99994465e+01,-2.82567067e-07,4.46967465,3.75802400,2.24146648,-1.84509864,3.86381098e-02,6.31810461,-2.84501417,-1,-0.9075657497984991
4.39329555e+03,1.99994234e+01,-2.77419369e-07,4.47370499,3.76719625,2.22513716,-1.84509863,4.79828234e-02,6.33057501,-2.81391763,-1,-0.9057206989006146
4.47785888e+03,1.99994002e+01,-2.70626329e-07,4.47629747,3.77639670,2.20803249,-1.84509867,5.97140053e-02,6.34300316,-2.78325622,-1,-0.9038337375093147
4.56488619e+03,1.99993770e+01,-2.62716630e-07,4.47759502,3.78559184,2.19029097,-1.84509888,7.45862068e-02,6.35525192,-2.75341981,-1,-0.9018917944240711
4.65446149e+03,1.99993539e+01,-2.53858633e-07,4.47774864,3.79476186,2.17202774,-1.84509896,9.35817147e-02,6.36739568,-2.72390633,-1,-0.8998929950305976
4.74703144e+03,1.99993309e+01,-2.44322413e-07,4.47682624,3.80388135,2.15332757,-1.84509930,1.17325485e-01,6.37931959,-2.69467537,-1,-0.8978273724771272
4.84160839e+03,1.99993083e+01,-2.34872625e-07,4.47572495,3.81298298,2.13457368,-1.84509952,1.47182797e-01,6.39117676,-2.66459700,-1,-0.8957169653638206
4.93967090e+03,1.99992858e+01,-2.25218764e-07,4.47384451,3.82200730,2.11558481,-1.84509940,1.85826950e-01,6.40268108,-2.63426328,-1,-0.8935287808362724
5.04262155e+03,1.99992632e+01,-2.14867358e-07,4.47055153,3.83088247,2.09618798,-1.84509882,2.35102302e-01,6.41370985,-2.60387568,-1,-0.8912315214714954
5.14869721e+03,1.99992410e+01,-2.05001771e-07,4.46722386,3.83969545,2.07689817,-1.84509857,2.99784406e-01,6.42466272,-2.57221370,-1,-0.8888645300701794
5.25964664e+03,1.99992189e+01,-1.95011100e-07,4.46303342,3.84836136,2.05747114,-1.84509853,3.83752402e-01,6.43547190,-2.54005737,-1,-0.8863887844864055
5.37627980e+03,1.99991968e+01,-1.84947790e-07,4.45781245,3.85683732,2.03790874,-1.84509848,4.92236550e-01,6.44618487,-2.50769946,-1,-0.8837862111267081
5.49729768e+03,1.99991751e+01,-1.75451872e-07,4.45265104,3.86521662,2.01856943,-1.84509839,6.34038043e-01,6.45711030,-2.47436611,-1,-0.8810857963344222
5.62287719e+03,1.99991537e+01,-1.66377640e-07,4.44756925,3.87349788,1.99946601,-1.84509858,8.14412361e-01,6.46825262,-2.44008083,-1,-0.8782835925079131
5.75532690e+03,1.99991323e+01,-1.57589611e-07,4.44175333,3.88156087,1.98043208,-1.84509859,1.03328653,6.47934299,-2.40575802,-1,-0.8753280857999954
5.89185700e+03,1.99991115e+01,-1.49658224e-07,4.43680191,3.88958850,1.96190110,-1.84509862,1.29995547,6.49073162,-2.37023097,-1,-0.8722815285339759
6.03496773e+03,1.99990907e+01,-1.42292275e-07,4.43172587,3.89744908,1.94364193,-1.84509864,1.59953784,6.50213898,-2.33444061,-1,-0.8690881299037335
6.18361458e+03,1.99990701e+01,-1.35562856e-07,4.42728377,3.90522048,1.92587807,-1.84509872,1.91902000,6.51367261,-2.29802501,-1,-0.86577119729372
6.33611155e+03,1.99990500e+01,-1.29790565e-07,4.42417214,3.91300122,1.90876079,-1.84509875,2.25004231,6.52542915,-2.26067597,-1,-0.8623683524118995
6.49309505e+03,1.99990301e+01,-1.24822327e-07,4.42210888,3.92075737,1.89221685,-1.84509877,2.57838482,6.53729439,-2.22279728,-1,-0.8588653942907951
6.65770648e+03,1.99990100e+01,-1.20242391e-07,4.42016247,3.92835102,1.87605635,-1.84509884,2.88570621,6.54904804,-2.18517535,-1,-0.8551922251644534
6.82267037e+03,1.99989905e+01,-1.16692417e-07,4.42041181,3.93610479,1.86067347,-1.84509885,3.18997359,6.56108479,-2.14646767,-1,-0.8515111911821276
6.99141107e+03,1.99989711e+01,-1.13709450e-07,4.42153894,3.94386092,1.84572479,-1.84509897,3.47351486,6.57316749,-2.10752871,-1,-0.8477458807805516
7.16516127e+03,1.99989516e+01,-1.11048974e-07,4.42310392,3.95157629,1.83107653,-1.84509904,3.72498479,6.58523297,-2.06860310,-1,-0.8438687874928271
7.34312462e+03,1.99989321e+01,-1.08667396e-07,4.42523432,3.95928253,1.81672925,-1.84509914,3.94212055,6.59732692,-2.02955587,-1,-0.839897681216426
7.52273256e+03,1.99989128e+01,-1.06742486e-07,4.42829895,3.96706771,1.80269120,-1.84509916,4.13694288,6.60957417,-1.98998713,-1,-0.8358898772622665
7.70726901e+03,1.99988933e+01,-1.04931401e-07,4.43151374,3.97482494,1.78878414,-1.84509939,4.30478418,6.62184691,-1.95036963,-1,-0.8317720976474201
7.89567532e+03,1.99988738e+01,-1.03291112e-07,4.43505862,3.98259099,1.77502449,-1.84509971,4.45280620,6.63420498,-1.91051913,-1,-0.8275679652788477
8.08678295e+03,1.99988542e+01,-1.01865445e-07,4.43909173,3.99040081,1.76142140,-1.84510003,4.58420134,6.64670679,-1.87024697,-1,-0.8233035551687822
8.28191444e+03,1.99988345e+01,-1.00556974e-07,4.44337242,3.99821653,1.74793031,-1.84509940,4.69664114,6.65930751,-1.82972286,-1,-0.8189493559212264
8.48371142e+03,1.99988150e+01,-9.10014167e-08,4.44758126,4.00596704,1.73453370,-1.84509971,4.38932125,6.67190356,-1.78930173,-1,-0.8144464217281087
8.68685620e+03,1.99987984e+01,-7.53474607e-08,4.45253306,4.01379606,1.72135157,-1.84509974,3.73345364,6.68469860,-1.74831799,-1,-0.8099134124827998
8.89385519e+03,1.99987847e+01,-6.02215521e-08,4.45787779,4.02163512,1.70834580,-1.84509970,3.05218622,6.69758630,-1.70714126,-1,-0.8052943997006866
