star_age,star_mass,star_mdot,log_Teff,log_R,log_surf_z,surface_h1,surface_he3,log_center_T,log_center_Rho,phase,x
2.23972437e+02,9.99958912e+01,-1.84014752e-05,4.29693796,1.96250111,-1.84509848,7.15399993e-01,4.48623527e-05,6.96249121,-1.73420219,-1,-1.0
2.29265035e+02,9.99957898e+01,-1.84910590e-05,4.29769180,1.96140785,-1.84509848,7.15399993e-01,4.48623527e-05,6.96396418,-1.72986774,-1,-0.9995799585323741
2.34557634e+02,9.99956884e+01,-1.85806429e-05,4.29844564,1.96031458,-1.84509848,7.15399993e-01,4.48623527e-05,6.96543715,-1.72553330,-1,-0.9991599169853843
2.39850232e+02,9.99955870e+01,-1.86702267e-05,4.29919948,1.95922131,-1.84509848,7.15399993e-01,4.48623527e-05,6.96691012,-1.72119886,-1,-0.9987398755177586
2.45142830e+02,9.99954856e+01,-1.87598105e-05,4.29995332,1.95812805,-1.84509848,7.15399993e-01,4.48623527e-05,6.96838309,-1.71686441,-1,-0.9983198340501327
2.50435429e+02,9.99953842e+01,-1.88493944e-05,4.30070716,1.95703478,-1.84509848,7.15399993e-01,4.48623527e-05,6.96985605,-1.71252997,-1,-0.9978997925031429
2.55728027e+02,9.99952828e+01,-1.89389782e-05,4.30146100,1.95594151,-1.84509848,7.15399993e-01,4.48623527e-05,6.97132902,-1.70819552,-1,-0.997479751035517
2.61020625e+02,9.99951814e+01,-1.90285620e-05,4.30221484,1.95484825,-1.84509848,7.15399993e-01,4.48623527e-05,6.97280199,-1.70386108,-1,-0.9970597095678911
2.66313224e+02,9.99950800e+01,-1.91181459e-05,4.30296868,1.95375498,-1.84509848,7.15399993e-01,4.48623527e-05,6.97427496,-1.69952664,-1,-0.9966396680209014
2.72086760e+02,9.99949660e+01,-1.92443288e-05,4.30379192,1.95256324,-1.84509848,7.15399993e-01,4.48623527e-05,6.97587091,-1.69483274,-1,-0.9961814574152913
2.78275983e+02,9.99948412e+01,-1.94021450e-05,4.30467514,1.95128638,-1.84509848,7.15399993e-01,4.48623527e-05,6.97757314,-1.68982817,-1,-0.9956902562486084
2.84465205e+02,9.99947163e+01,-1.95599612e-05,4.30555836,1.95000953,-1.84509848,7.15399993e-01,4.48623527e-05,6.97927537,-1.68482360,-1,-0.9951990551612895
2.90654428e+02,9.99945915e+01,-1.97177774e-05,4.30644157,1.94873268,-1.84509848,7.15399993e-01,4.48623527e-05,6.98097760,-1.67981903,-1,-0.9947078539946066
2.96843650e+02,9.99944666e+01,-1.98755936e-05,4.30732479,1.94745582,-1.84509848,7.15399993e-01,4.48623527e-05,6.98267983,-1.67481445,-1,-0.9942166529072876
3.03032872e+02,9.99943417e+01,-2.00334098e-05,4.30820801,1.94617897,-1.84509848,7.15399993e-01,4.48623527e-05,6.98438206,-1.66980988,-1,-0.9937254518199686
3.09315339e+02,9.99942142e+01,-2.01936463e-05,4.30910345,1.94488449,-1.84509848,7.15399993e-01,4.48623527e-05,6.98610749,-1.66473768,-1,-0.9932268504414035
3.16314306e+02,9.99940664e+01,-2.03724802e-05,4.31009282,1.94345460,-1.84509848,7.15399994e-01,4.48623527e-05,6.98801122,-1.65914584,-1,-0.9926713847947504
3.23313274e+02,9.99939185e+01,-2.05513141e-05,4.31108218,1.94202471,-1.84509848,7.15399994e-01,4.48623527e-05,6.98991495,-1.65355399,-1,-0.9921159190687334
3.30312241e+02,9.99937706e+01,-2.07301480e-05,4.31207155,1.94059482,-1.84509848,7.15399994e-01,4.48623527e-05,6.99181867,-1.64796214,-1,-0.9915604534220803
3.37311208e+02,9.99936228e+01,-2.09089820e-05,4.31306092,1.93916492,-1.84509848,7.15399994e-01,4.48623527e-05,6.99372240,-1.64237029,-1,-0.9910049877754272
3.44310175e+02,9.99934749e+01,-2.10878159e-05,4.31405029,1.93773503,-1.84509848,7.15399994e-01,4.48623527e-05,6.99562613,-1.63677845,-1,-0.9904495221287741
3.51906447e+02,9.99933087e+01,-2.12832746e-05,4.31512247,1.93617551,-1.84509848,7.15399994e-01,4.48623527e-05,6.99767131,-1.63077660,-1,-0.9898466519997061
3.59670305e+02,9.99931375e+01,-2.14833976e-05,4.31621788,1.93457962,-1.84509848,7.15399994e-01,4.48623527e-05,6.99975617,-1.62465971,-1,-0.9892304815842015
3.67434163e+02,9.99929662e+01,-2.16835207e-05,4.31731329,1.93298373,-1.84509848,7.15399994e-01,4.48623526e-05,7.00184104,-1.61854282,-1,-0.9886143111686969
3.75198021e+02,9.99927949e+01,-2.18836438e-05,4.31840870,1.93138784,-1.84509848,7.15399994e-01,4.48623526e-05,7.00392591,-1.61242594,-1,-0.9879981407531924
3.83044569e+02,9.99926209e+01,-2.20862024e-05,4.31951530,1.92977363,-1.84509848,7.15399994e-01,4.48623526e-05,7.00603060,-1.60625146,-1,-0.9873754077329031
3.91550896e+02,9.99924253e+01,-2.23081933e-05,4.32071114,1.92801327,-1.84509848,7.15399994e-01,4.48623526e-05,7.00829348,-1.59961747,-1,-0.9867003120469687
4.00057223e+02,9.99922297e+01,-2.25301842e-05,4.32190699,1.92625292,-1.84509848,7.15399994e-01,4.48623526e-05,7.01055636,-1.59298347,-1,-0.9860252163610342
4.08563550e+02,9.99920341e+01,-2.27521751e-05,4.32310283,1.92449257,-1.84509848,7.15399994e-01,4.48623526e-05,7.01281924,-1.58634948,-1,-0.9853501206750997
4.17069877e+02,9.99918384e+01,-2.29741660e-05,4.32429868,1.92273221,-1.84509848,7.15399994e-01,4.48623526e-05,7.01508213,-1.57971549,-1,-0.9846750249891653
4.26234333e+02,9.99916198e+01,-2.32169015e-05,4.32557702,1.92083119,-1.84509848,7.15399994e-01,4.48623526e-05,7.01749028,-1.57266171,-1,-0.9839476975880983
4.35472221e+02,9.99913987e+01,-2.34619515e-05,4.32686458,1.91891447,-1.84509848,7.15399994e-01,4.48623526e-05,7.01991463,-1.56556110,-1,-0.9832145423336688
4.44710108e+02,9.99911775e+01,-2.37070015e-05,4.32815213,1.91699775,-1.84509848,7.15399994e-01,4.48623526e-05,7.02233899,-1.55846049,-1,-0.9824813871586032
4.53978815e+02,9.99909552e+01,-2.39512361e-05,4.32944391,1.91507338,-1.84509848,7.15399994e-01,4.48623526e-05,7.02477027,-1.55133986,-1,-0.9817457859866884
4.64006766e+02,9.99907055e+01,-2.41753826e-05,4.33083983,1.91296069,-1.84509848,7.15399994e-01,4.48623526e-05,7.02737194,-1.54372611,-1,-0.9809499282141313
4.74034716e+02,9.99904558e+01,-2.43995291e-05,4.33223575,1.91084801,-1.84509848,7.15399994e-01,4.48623526e-05,7.02997361,-1.53611235,-1,-0.9801540705209382
4.84062667e+02,9.99902061e+01,-2.46236756e-05,4.33363167,1.90873532,-1.84509848,7.15399995e-01,4.48623526e-05,7.03257528,-1.52849860,-1,-0.9793582127483811
4.94090618e+02,9.99899564e+01,-2.48478221e-05,4.33502759,1.90662264,-1.84509848,7.15399995e-01,4.48623526e-05,7.03517696,-1.52088484,-1,-0.978562354975824
5.04844105e+02,9.99896788e+01,-2.50915550e-05,4.33651443,1.90433497,-1.84509848,7.15399995e-01,4.48623526e-05,7.03792509,-1.51284927,-1,-0.977708915802553
5.15812764e+02,9.99893929e+01,-2.53410966e-05,4.33802823,1.90199541,-1.84509848,7.15399995e-01,4.48623525e-05,7.04071665,-1.50468861,-1,-0.9768383997300595
5.26781422e+02,9.99891070e+01,-2.55906382e-05,4.33954203,1.89965585,-1.84509848,7.15399995e-01,4.48623525e-05,7.04350822,-1.49652794,-1,-0.9759678837369298
5.37750081e+02,9.99888210e+01,-2.58401798e-05,4.34105583,1.89731628,-1.84509848,7.15399995e-01,4.48623525e-05,7.04629978,-1.48836727,-1,-0.9750973676644362
5.48802240e+02,9.99885314e+01,-2.61023320e-05,4.34257989,1.89495665,-1.84509848,7.15399995e-01,4.48623525e-05,7.04910781,-1.48015874,-1,-0.9742202247023609
5.60707056e+02,9.99882043e+01,-2.64932573e-05,4.34420866,1.89239202,-1.84509848,7.15399995e-01,4.48623525e-05,7.05208395,-1.47146139,-1,-0.973275411515254
5.72611873e+02,9.99878771e+01,-2.68841825e-05,4.34583743,1.88982738,-1.84509848,7.15399995e-01,4.48623525e-05,7.05506008,-1.46276405,-1,-0.9723305982487831
5.84516690e+02,9.99875500e+01,-2.72751078e-05,4.34746621,1.88726275,-1.84509848,7.15399995e-01,4.48623525e-05,7.05803622,-1.45406670,-1,-0.9713857849823122
5.96801401e+02,9.99872052e+01,-2.76608715e-05,4.34914576,1.88459917,-1.84509848,7.15399995e-01,4.48623525e-05,7.06108660,-1.44515522,-1,-0.9704108218285267
6.09508499e+02,9.99868410e+01,-2.80408961e-05,4.35088177,1.88182559,-1.84509848,7.15399995e-01,4.48623525e-05,7.06421952,-1.43600563,-1,-0.9694023363752227
6.22215597e+02,9.99864768e+01,-2.84209207e-05,4.35261779,1.87905200,-1.84509848,7.15399995e-01,4.48623525e-05,7.06735244,-1.42685604,-1,-0.9683938509219188
6.35190770e+02,9.99860995e+01,-2.88041948e-05,4.35438723,1.87621055,-1.84509848,7.15399996e-01,4.48623525e-05,7.07053510,-1.41756326,-1,-0.9673640899784994
6.48644684e+02,9.99856991e+01,-2.91932718e-05,4.35621638,1.87324792,-1.84509848,7.15399996e-01,4.48623525e-05,7.07380659,-1.40801476,-1,-0.9662963342596876
6.62098599e+02,9.99852986e+01,-2.95823489e-05,4.35804553,1.87028529,-1.84509848,7.15399996e-01,4.48623524e-05,7.07707808,-1.39846626,-1,-0.9652285784615119
6.75932992e+02,9.99848788e+01,-2.99792158e-05,4.35992170,1.86722426,-1.84509848,7.15399996e-01,4.48623524e-05,7.08042081,-1.38871189,-1,-0.9641306264274763
6.90103228e+02,9.99844420e+01,-3.03829588e-05,4.36183937,1.86407638,-1.84509848,7.15399996e-01,4.48623524e-05,7.08382640,-1.37877580,-1,-0.9630060205673591
7.04273463e+02,9.99840051e+01,-3.07867018e-05,4.36375705,1.86092850,-1.84509848,7.15399996e-01,4.48623524e-05,7.08723200,-1.36883970,-1,-0.9618814147866058
7.19072494e+02,9.99835349e+01,-3.12058513e-05,4.36574710,1.85762360,-1.84509848,7.15399996e-01,4.48623524e-05,7.09074422,-1.35859592,-1,-0.96070690527338
7.33945573e+02,9.99830607e+01,-3.16268151e-05,4.36774568,1.85430021,-1.84509848,7.15399996e-01,4.48623524e-05,7.09426900,-1.34831589,-1,-0.9595265190186001
7.49122663e+02,9.99825704e+01,-3.20261202e-05,4.36977869,1.85089935,-1.84509848,7.15399996e-01,4.48623524e-05,7.09784234,-1.33789623,-1,-0.9583220052509024
7.64756640e+02,9.99820556e+01,-3.23928752e-05,4.37186342,1.84738206,-1.84509848,7.15399996e-01,4.48623524e-05,7.10148866,-1.32726669,-1,-0.9570812311275119
7.80390616e+02,9.99815409e+01,-3.27596302e-05,4.37394815,1.84386478,-1.84509848,7.15399997e-01,4.48623524e-05,7.10513498,-1.31663716,-1,-0.9558404570834852
7.96527099e+02,9.99809981e+01,-3.31392425e-05,4.37608244,1.84022751,-1.84509848,7.15399997e-01,4.48623523e-05,7.10885098,-1.30580671,-1,-0.9545598021004996
8.13072826e+02,9.99804325e+01,-3.35293258e-05,4.37825709,1.83649254,-1.84509848,7.15399997e-01,4.48623523e-05,7.11262373,-1.29481264,-1,-0.9532466678983522
8.29618553e+02,9.99798669e+01,-3.39194090e-05,4.38043174,1.83275757,-1.84509848,7.15399997e-01,4.48623523e-05,7.11639647,-1.28381856,-1,-0.9519335336962049
8.46459456e+02,9.99792828e+01,-3.43712662e-05,4.38263071,1.82896211,-1.84509848,7.15399997e-01,4.48623523e-05,7.12021024,-1.27270487,-1,-0.9505969731616122
8.63923534e+02,9.99786597e+01,-3.49535407e-05,4.38488101,1.82503897,-1.84509848,7.15399997e-01,4.48623523e-05,7.12411063,-1.26133867,-1,-0.9492109549992934
8.81387613e+02,9.99780365e+01,-3.55358151e-05,4.38713132,1.82111584,-1.84509848,7.15399997e-01,4.48623523e-05,7.12801102,-1.24997247,-1,-0.9478249367576106
8.99428125e+02,9.99773760e+01,-3.60856387e-05,4.38944870,1.81704108,-1.84509848,7.15399997e-01,4.48623523e-05,7.13199150,-1.23837470,-1,-0.9463931705178166
9.17661947e+02,9.99767030e+01,-3.66245795e-05,4.39178857,1.81291548,-1.84509848,7.15399998e-01,4.48623523e-05,7.13599884,-1.22669926,-1,-0.9449460624334111
9.36238093e+02,9.99760072e+01,-3.71621244e-05,4.39416305,1.80870647,-1.84509848,7.15399998e-01,4.48623523e-05,7.14005050,-1.21489539,-1,-0.9434717861651828
9.55199922e+02,9.99752858e+01,-3.76980965e-05,4.39657650,1.80440351,-1.84509848,7.15399998e-01,4.48623523e-05,7.14415207,-1.20294680,-1,-0.9419669005717501
9.74408392e+02,9.99745475e+01,-3.82358401e-05,4.39901400,1.80004114,-1.84509848,7.15399998e-01,4.48623523e-05,7.14828689,-1.19090116,-1,-0.940442440575044
9.94073928e+02,9.99737778e+01,-3.87768666e-05,4.40149604,1.79556869,-1.84509848,7.15399998e-01,4.48623524e-05,7.15248332,-1.17867567,-1,-0.9388817060164986
1.01397281e+03,9.99729918e+01,-3.93201938e-05,4.40399845,1.79104398,-1.84509848,7.15399998e-01,4.48623524e-05,7.15670641,-1.16637280,-1,-0.937302452198356
1.03433694e+03,9.99721731e+01,-3.98681084e-05,4.40654146,1.78641505,-1.84509848,7.15399999e-01,4.48623525e-05,7.16098264,-1.15391566,-1,-0.935686274462559
1.05499662e+03,9.99714759e+01,-3.73928750e-05,4.40911111,1.78172360,-1.84509848,7.15399999e-01,4.48623526e-05,7.16528745,-1.14137586,-1,-0.9340466407122004
1.07611511e+03,9.99709671e+01,-3.02244819e-05,4.41172211,1.77693510,-1.84509848,7.15399999e-01,4.48623527e-05,7.16963664,-1.12870772,-1,-0.9323705939892788
1.09736853e+03,9.99705220e+01,-2.29161640e-05,4.41434075,1.77212491,-1.84509848,7.15399999e-01,4.48623529e-05,7.17400027,-1.11599744,-1,-0.9306838386889766
1.11942173e+03,9.99704542e+01,-1.47784718e-05,4.41700463,1.76718614,-1.84509848,7.15399999e-01,4.48623532e-05,7.17844948,-1.10303740,-1,-0.9289336096910731
1.14147493e+03,9.99703864e+01,-6.64077963e-06,4.41966851,1.76224738,-1.84509848,7.15400000e-01,4.48623535e-05,7.18289869,-1.09007735,-1,-0.9271833806931695
1.16409639e+03,9.99703127e+01,-3.16135853e-06,4.42233740,1.75726050,-1.84509848,7.15400000e-01,4.48623540e-05,7.18739858,-1.07696697,-1,-0.9253880523386943
1.18716119e+03,9.99702343e+01,-3.31612951e-06,4.42501018,1.75223609,-1.84509848,7.15400000e-01,4.48623547e-05,7.19193799,-1.06373931,-1,-0.9235575387719173
1.21057512e+03,9.99701517e+01,-3.46518447e-06,4.42772546,1.74711468,-1.84509849,7.15400000e-01,4.48623557e-05,7.19651264,-1.05040923,-1,-0.9216993168702938
1.23438475e+03,9.99700644e+01,-3.60776098e-06,4.43048890,1.74188335,-1.84509849,7.15400001e-01,4.48623570e-05,7.20112723,-1.03696308,-1,-0.9198096906548079
1.25862151e+03,9.99699718e+01,-3.75221723e-06,4.43328644,1.73656417,-1.84509849,7.15400001e-01,4.48623590e-05,7.20577731,-1.02341174,-1,-0.9178861657166025
1.28317834e+03,9.99698752e+01,-3.89808205e-06,4.43610952,1.73117916,-1.84509849,7.15400001e-01,4.48623616e-05,7.21045399,-1.00978158,-1,-0.9159372387598531
1.30831987e+03,9.99697713e+01,-4.04852804e-06,4.43896688,1.72569771,-1.84509849,7.15400002e-01,4.48623658e-05,7.21516896,-9.96038391e-01,-1,-0.9139419077032417
1.33366918e+03,9.99696646e+01,-4.19932615e-06,4.44183713,1.72018099,-1.84509849,7.15400002e-01,4.48623708e-05,7.21989816,-9.82253323e-01,-1,-0.9119300864057046
1.35976688e+03,9.99695483e+01,-4.33063199e-06,4.44476533,1.71452108,-1.84509849,7.15400002e-01,4.48623808e-05,7.22468859,-9.68289533e-01,-1,-0.9098588699238068
1.38590325e+03,9.99694315e+01,-4.46227056e-06,4.44769498,1.70885667,-1.84509849,7.15400002e-01,4.48623912e-05,7.22948142,-9.54318638e-01,-1,-0.9077845844380752
1.41301089e+03,9.99693019e+01,-4.60226841e-06,4.45066096,1.70307885,-1.84509849,7.15400003e-01,4.48624145e-05,7.23433439,-9.40169249e-01,-1,-0.9056332151314562
1.44011853e+03,9.99691722e+01,-4.74226625e-06,4.45362695,1.69730104,-1.84509849,7.15400003e-01,4.48624378e-05,7.23918736,-9.26019859e-01,-1,-0.9034818458248373
1.46801198e+03,9.99690309e+01,-4.93194739e-06,4.45659413,1.69148281,-1.84509849,7.15400003e-01,4.48624763e-05,7.24409339,-9.11709457e-01,-1,-0.9012681115349577
1.49621624e+03,9.99688848e+01,-5.14127993e-06,4.45956179,1.68564859,-1.84509849,7.15400004e-01,4.48625207e-05,7.24902041,-8.97335369e-01,-1,-0.8990297101366839
1.52512672e+03,9.99687272e+01,-5.33782602e-06,4.46256914,1.67972104,-1.84509849,7.15400004e-01,4.48625927e-05,7.25399437,-8.82821189e-01,-1,-0.8967352603316981
1.55427860e+03,9.99685655e+01,-5.53168521e-06,4.46558871,1.67376358,-1.84509849,7.15400004e-01,4.48626762e-05,7.25898378,-8.68261078e-01,-1,-0.8944216520698857
1.58417329e+03,9.99683913e+01,-5.72545201e-06,4.46863925,1.66772374,-1.84509849,7.15400005e-01,4.48628047e-05,7.26401790,-8.53569114e-01,-1,-0.8920490914745373
1.61448593e+03,9.99682101e+01,-5.90515179e-06,4.47171290,1.66163091,-1.84509849,7.15400005e-01,4.48629798e-05,7.26907271,-8.38815520e-01,-1,-0.8896433607175037
1.64525415e+03,9.99680212e+01,-6.06951839e-06,4.47481173,1.65548032,-1.84509849,7.15400005e-01,4.48632058e-05,7.27415007,-8.23994748e-01,-1,-0.8872014733334563
1.67666820e+03,9.99678213e+01,-6.23892730e-06,4.47792598,1.64928188,-1.84509849,7.15400005e-01,4.48635426e-05,7.27925579,-8.09088884e-01,-1,-0.8847083303314615
1.70856165e+03,9.99676133e+01,-6.41207907e-06,4.48105167,1.64304790,-1.84509849,7.15400006e-01,4.48639617e-05,7.28438256,-7.94119855e-01,-1,-0.882177140253233
1.74091645e+03,9.99673967e+01,-6.61558441e-06,4.48417229,1.63680497,-1.84509849,7.15400006e-01,4.48644744e-05,7.28953298,-7.79077348e-01,-1,-0.879609335618016
1.77405955e+03,9.99671654e+01,-6.87095613e-06,4.48728427,1.63054676,-1.84509849,7.15400006e-01,4.48651470e-05,7.29472381,-7.63909286e-01,-1,-0.87697896838331
1.80774073e+03,9.99669229e+01,-7.11253715e-06,4.49042075,1.62423636,-1.84509849,7.15400006e-01,4.48660078e-05,7.29994134,-7.48661567e-01,-1,-0.8743058969959554
1.84182092e+03,9.99666721e+01,-7.34389166e-06,4.49357538,1.61788724,-1.84509849,7.15400006e-01,4.48670080e-05,7.30517866,-7.33354778e-01,-1,-0.8716011586000736
1.87677896e+03,9.99664032e+01,-7.57239416e-06,4.49675588,1.61147180,-1.84509849,7.15400006e-01,4.48684100e-05,7.31044792,-7.17949769e-01,-1,-0.8688267505632411
1.91214900e+03,9.99661256e+01,-7.78658752e-06,4.49995684,1.60501460,-1.84509849,7.15400006e-01,4.48700787e-05,7.31573365,-7.02495655e-01,-1,-0.8660196445802089
1.94810163e+03,9.99658357e+01,-7.97767273e-06,4.50318858,1.59849598,-1.84509849,7.15400005e-01,4.48721416e-05,7.32104301,-6.86971440e-01,-1,-0.863166301955243
1.98475060e+03,9.99655315e+01,-8.17345355e-06,4.50643169,1.59194261,-1.84509850,7.15400005e-01,4.48747750e-05,7.32637367,-6.71382025e-01,-1,-0.8602576950393624
2.02195709e+03,9.99652158e+01,-8.37299390e-06,4.50968391,1.58536142,-1.84509850,7.15400004e-01,4.48778650e-05,7.33172137,-6.55740407e-01,-1,-0.8573048411357018
2.05980743e+03,9.99648861e+01,-8.61384066e-06,4.51292084,1.57878678,-1.84509850,7.15400003e-01,4.48814827e-05,7.33709605,-6.40014252e-01,-1,-0.8543008887547091
2.09847637e+03,9.99645384e+01,-8.90720552e-06,4.51613834,1.57222047,-1.84509850,7.15400002e-01,4.48857714e-05,7.34250503,-6.24180617e-01,-1,-0.8512319690466308
2.13787553e+03,9.99641728e+01,-9.17314816e-06,4.51938731,1.56559304,-1.84509850,7.15400001e-01,4.48909724e-05,7.34793970,-6.08270487e-01,-1,-0.8481050961971105
2.17770951e+03,9.99637965e+01,-9.42729561e-06,4.52265233,1.55893291,-1.84509850,7.15399999e-01,4.48967412e-05,7.35338924,-5.92315602e-01,-1,-0.8449437143161177
2.21842869e+03,9.99633988e+01,-9.67552395e-06,4.52593926,1.55222089,-1.84509850,7.15399997e-01,4.49037640e-05,7.35886741,-5.76272775e-01,-1,-0.8417120794691634
2.25980731e+03,9.99629851e+01,-9.89669979e-06,4.52925538,1.54545371,-1.84509850,7.15399995e-01,4.49120274e-05,7.36435987,-5.60189528e-01,-1,-0.8384281088609418
2.30156900e+03,9.99625621e+01,-1.01021612e-05,4.53258845,1.53865450,-1.84509850,7.15399992e-01,4.49210115e-05,7.36986063,-5.44082803e-01,-1,-0.8351137363055096
2.34453980e+03,9.99621106e+01,-1.03127889e-05,4.53593757,1.53180566,-1.84509850,7.15399989e-01,4.49325222e-05,7.37538529,-5.27902435e-01,-1,-0.8317034040080147
2.38769758e+03,9.99616547e+01,-1.05242156e-05,4.53928917,1.52494915,-1.84509850,7.15399985e-01,4.49444237e-05,7.38091366,-5.11710680e-01,-1,-0.8282782322396934
2.43219252e+03,9.99611664e+01,-1.08072008e-05,4.54261260,1.51810046,-1.84509850,7.15399981e-01,4.49589519e-05,7.38648219,-4.95395386e-01,-1,-0.8247469381758852
2.47714766e+03,9.99606665e+01,-1.11000274e-05,4.54593607,1.51124170,-1.84509850,7.15399976e-01,4.49745266e-05,7.39206348,-4.79042022e-01,-1,-0.8211791208236272
2.52305522e+03,9.99601407e+01,-1.13537741e-05,4.54929875,1.50431075,-1.84509850,7.15399970e-01,4.49928397e-05,7.39766681,-4.62627751e-01,-1,-0.8175357156608846
2.56964088e+03,9.99595970e+01,-1.15993062e-05,4.55268028,1.49733777,-1.84509850,7.15399964e-01,4.50132909e-05,7.40328282,-4.46178931e-01,-1,-0.813838493805622
2.61680898e+03,9.99590379e+01,-1.18328428e-05,4.55608269,1.49032162,-1.84509850,7.15399957e-01,4.50357889e-05,7.40890727,-4.29709394e-01,-1,-0.8100950472130181
2.66488536e+03,9.99584544e+01,-1.20250003e-05,4.55953915,1.48320580,-1.84509850,7.15399949e-01,4.50624444e-05,7.41453365,-4.13248678e-01,-1,-0.8062795159345537
2.71363520e+03,9.99578548e+01,-1.22169067e-05,4.56299724,1.47607838,-1.84509850,7.15399939e-01,4.50924531e-05,7.42016922,-3.96769455e-01,-1,-0.802410536212284
2.76333347e+03,9.99572325e+01,-1.24084594e-05,4.56645763,1.46893463,-1.84509850,7.15399928e-01,4.51271839e-05,7.42581773,-3.80264171e-01,-1,-0.7984662853416784
