star_age,star_mass,star_mdot,log_Teff,log_R,log_surf_z,surface_h1,surface_he3,log_center_T,log_center_Rho,phase,x
1.05484728e+02,7.49960225e+01,-9.61269999e-06,4.03852218,2.38281883,-1.84509849,7.15399994e-01,4.48623527e-05,6.59351173,-2.74935502,-1,-1.0
1.08406313e+02,7.49960042e+01,-8.74141120e-06,4.04014540,2.37871893,-1.84509849,7.15399995e-01,4.48623527e-05,6.59484643,-2.74535967,-1,-0.9997570535669613
1.11327899e+02,7.49959859e+01,-7.87012241e-06,4.04176862,2.37461902,-1.84509849,7.15399995e-01,4.48623526e-05,6.59618112,-2.74136432,-1,-0.9995141070507668
1.14249484e+02,7.49959675e+01,-6.99883362e-06,4.04339184,2.37051912,-1.84509849,7.15399995e-01,4.48623526e-05,6.59751581,-2.73736897,-1,-0.9992711606177281
1.17224840e+02,7.49959499e+01,-6.19915154e-06,4.04502867,2.36638401,-1.84509849,7.15399995e-01,4.48623526e-05,6.59887054,-2.73331289,-1,-0.9990237428197792
1.20462149e+02,7.49959356e+01,-5.74830994e-06,4.04673184,2.36207744,-1.84509849,7.15399995e-01,4.48623526e-05,6.60032283,-2.72896094,-1,-0.9987545421378912
1.23699459e+02,7.49959214e+01,-5.29746835e-06,4.04843500,2.35777087,-1.84509850,7.15399995e-01,4.48623526e-05,6.60177513,-2.72460899,-1,-0.9984853413728473
1.26936768e+02,7.49959071e+01,-4.84662676e-06,4.05013816,2.35346429,-1.84509850,7.15399995e-01,4.48623526e-05,6.60322743,-2.72025704,-1,-0.9982161406909591
1.30181545e+02,7.49958928e+01,-4.40544337e-06,4.05184032,2.34915794,-1.84509850,7.15399995e-01,4.48623526e-05,6.60468246,-2.71589678,-1,-0.997946319002336
1.33745225e+02,7.49958774e+01,-4.37672097e-06,4.05349961,2.34486070,-1.84509850,7.15399996e-01,4.48623526e-05,6.60625418,-2.71118186,-1,-0.997649978712907
1.37308905e+02,7.49958620e+01,-4.34799856e-06,4.05515889,2.34056347,-1.84509850,7.15399996e-01,4.48623526e-05,6.60782590,-2.70646694,-1,-0.9973536384234779
1.40872585e+02,7.49958467e+01,-4.31927616e-06,4.05681818,2.33626624,-1.84509850,7.15399996e-01,4.48623526e-05,6.60939763,-2.70175202,-1,-0.997057298134049
1.44685977e+02,7.49958305e+01,-4.29080842e-06,4.05854249,2.33185839,-1.84509850,7.15399996e-01,4.48623526e-05,6.61105694,-2.69677073,-1,-0.996740192869551
1.48528407e+02,7.49958142e+01,-4.26237029e-06,4.06027436,2.32743767,-1.84509850,7.15399995e-01,4.48623526e-05,6.61272645,-2.69175847,-1,-0.996420672929963
1.52407743e+02,7.49957978e+01,-4.23499211e-06,4.06204169,2.32295603,-1.84509850,7.15399995e-01,4.48623526e-05,6.61440826,-2.68670876,-1,-0.9960980840462719
1.56524795e+02,7.49957806e+01,-4.21444093e-06,4.06403748,2.31808197,-1.84509850,7.15399995e-01,4.48623526e-05,6.61616936,-2.68141790,-1,-0.9957557277232366
1.60641848e+02,7.49957634e+01,-4.19388976e-06,4.06603326,2.31320792,-1.84509850,7.15399996e-01,4.48623526e-05,6.61793047,-2.67612703,-1,-0.9954133713170457
1.64773227e+02,7.49957462e+01,-4.17356092e-06,4.06803454,2.30832128,-1.84509850,7.15399996e-01,4.48623526e-05,6.61969617,-2.67082202,-1,-0.995069823622359
1.69233808e+02,7.49957278e+01,-4.15834077e-06,4.07016199,2.30314561,-1.84509850,7.15399996e-01,4.48623526e-05,6.62156770,-2.66519204,-1,-0.9946989009063572
1.73694390e+02,7.49957094e+01,-4.14312062e-06,4.07228944,2.29796993,-1.84509850,7.15399996e-01,4.48623525e-05,6.62343923,-2.65956206,-1,-0.9943279781071995
1.78154971e+02,7.49956910e+01,-4.12790047e-06,4.07441689,2.29279426,-1.84509850,7.15399996e-01,4.48623525e-05,6.62531075,-2.65393208,-1,-0.9939570553911976
1.82839160e+02,7.49956719e+01,-4.10840814e-06,4.07653466,2.28759516,-1.84509850,7.15399996e-01,4.48623525e-05,6.62725446,-2.64808151,-1,-0.9935675383964057
1.87662563e+02,7.49956523e+01,-4.08625601e-06,4.07864638,2.28238147,-1.84509850,7.15399996e-01,4.48623525e-05,6.62924311,-2.64209359,-1,-0.9931664449646013
1.92486866e+02,7.49956327e+01,-4.06410287e-06,4.08075811,2.27716774,-1.84509850,7.15399996e-01,4.48623525e-05,6.63123204,-2.63610483,-1,-0.9927652766926708
1.97625045e+02,7.49956120e+01,-4.04159459e-06,4.08286967,2.27193767,-1.84509850,7.15399996e-01,4.48623525e-05,6.63331793,-2.62981875,-1,-0.9923380078436164
2.02763224e+02,7.49955914e+01,-4.01908632e-06,4.08498122,2.26670760,-1.84509850,7.15399996e-01,4.48623525e-05,6.63540382,-2.62353267,-1,-0.9919107389945621
2.08135560e+02,7.49955701e+01,-3.99992465e-06,4.08712068,2.26143453,-1.84509851,7.15399996e-01,4.48623525e-05,6.63755848,-2.61703502,-1,-0.9914639986572843
2.13600292e+02,7.49955484e+01,-3.98208351e-06,4.08927115,2.25614449,-1.84509851,7.15399997e-01,4.48623525e-05,6.63974028,-2.61045390,-1,-0.9910095750663525
2.19119582e+02,7.49955265e+01,-3.96438644e-06,4.09142454,2.25085052,-1.84509851,7.15399997e-01,4.48623525e-05,6.64193760,-2.60382477,-1,-0.990550614666978
2.24979641e+02,7.49955036e+01,-3.94758923e-06,4.09359620,2.24553197,-1.84509851,7.15399997e-01,4.48623524e-05,6.64423186,-2.59689582,-1,-0.9900633173843569
2.30839699e+02,7.49954806e+01,-3.93079201e-06,4.09576787,2.24021343,-1.84509851,7.15399998e-01,4.48623524e-05,6.64652611,-2.58996687,-1,-0.9895760201848915
2.36804217e+02,7.49954573e+01,-3.91276766e-06,4.09793422,2.23490335,-1.84509852,7.15399998e-01,4.48623524e-05,6.64885035,-2.58294598,-1,-0.9890800365414599
2.43078909e+02,7.49954330e+01,-3.89109954e-06,4.10008483,2.22961840,-1.84509851,7.15399998e-01,4.48623524e-05,6.65126362,-2.57565211,-1,-0.9885582601632896
2.49353600e+02,7.49954088e+01,-3.86943142e-06,4.10223544,2.22433344,-1.84509851,7.15399998e-01,4.48623524e-05,6.65367689,-2.56835823,-1,-0.988036483868275
2.55962304e+02,7.49953835e+01,-3.84941400e-06,4.10438266,2.21906920,-1.84509852,7.15399998e-01,4.48623524e-05,6.65618233,-2.56078083,-1,-0.9874869324898935
2.62616411e+02,7.49953580e+01,-3.82962096e-06,4.10652943,2.21380778,-1.84509852,7.15399998e-01,4.48623524e-05,6.65870030,-2.55316490,-1,-0.986933605593463
2.69556998e+02,7.49953317e+01,-3.81298421e-06,4.10869336,2.20854124,-1.84509852,7.15399998e-01,4.48623523e-05,6.66129331,-2.54531608,-1,-0.9863564562533462
2.76615236e+02,7.49953050e+01,-3.79764368e-06,4.11086434,2.20327261,-1.84509852,7.15399999e-01,4.48623523e-05,6.66391714,-2.53737161,-1,-0.985769523562482
2.83796606e+02,7.49952778e+01,-3.78271696e-06,4.11303841,2.19800886,-1.84509853,7.15400000e-01,4.48623522e-05,6.66657242,-2.52933038,-1,-0.9851723517445026
2.91342823e+02,7.49952496e+01,-3.76901637e-06,4.11522163,2.19275957,-1.84509853,7.15400000e-01,4.48623522e-05,6.66932091,-2.52100244,-1,-0.984544840820437
2.98889039e+02,7.49952213e+01,-3.75531579e-06,4.11740486,2.18751029,-1.84509853,7.15400001e-01,4.48623521e-05,6.67206939,-2.51267449,-1,-0.9839173299795271
3.06689035e+02,7.49951922e+01,-3.74047628e-06,4.11958157,2.18228757,-1.84509854,7.15400001e-01,4.48623521e-05,6.67488386,-2.50414292,-1,-0.9832687158861784
3.14747840e+02,7.49951623e+01,-3.72447528e-06,4.12175163,2.17709194,-1.84509854,7.15400001e-01,4.48623521e-05,6.67776561,-2.49540367,-1,-0.9825985803503974
3.22891421e+02,7.49951321e+01,-3.70893090e-06,4.12392150,2.17190511,-1.84509854,7.15400002e-01,4.48623521e-05,6.68066867,-2.48659909,-1,-0.981921395207363
3.31427126e+02,7.49951007e+01,-3.69549855e-06,4.12609050,2.16675901,-1.84509854,7.15400002e-01,4.48623521e-05,6.68367031,-2.47749233,-1,-0.9812116027203326
3.39980760e+02,7.49950692e+01,-3.68220923e-06,4.12826009,2.16161441,-1.84509855,7.15400002e-01,4.48623520e-05,6.68667624,-2.46837234,-1,-0.9805003193348351
3.49029461e+02,7.49950360e+01,-3.67286903e-06,4.13044585,2.15651102,-1.84509856,7.15400003e-01,4.48623519e-05,6.68980050,-2.45888712,-1,-0.9797478683085654
3.58078162e+02,7.49950029e+01,-3.66352884e-06,4.13263162,2.15140763,-1.84509856,7.15400004e-01,4.48623519e-05,6.69292476,-2.44940190,-1,-0.9789954172822957
3.67503134e+02,7.49949685e+01,-3.65579549e-06,4.13482372,2.14634815,-1.84509857,7.15400006e-01,4.48623518e-05,6.69613742,-2.43964543,-1,-0.9782116771792729
3.77169325e+02,7.49949333e+01,-3.64909227e-06,4.13701987,2.14131680,-1.84509858,7.15400007e-01,4.48623516e-05,6.69940675,-2.42971506,-1,-0.9774078783425041
3.86835517e+02,7.49948981e+01,-3.64238904e-06,4.13921602,2.13628546,-1.84509859,7.15400008e-01,4.48623515e-05,6.70267609,-2.41978470,-1,-0.9766040794225797
3.97071662e+02,7.49948610e+01,-3.63745222e-06,4.14141184,2.13132503,-1.84509859,7.15400009e-01,4.48623515e-05,6.70608297,-2.40943370,-1,-0.9757528856644596
4.07382176e+02,7.49948235e+01,-3.63274589e-06,4.14360760,2.12637386,-1.84509859,7.15400009e-01,4.48623515e-05,6.70950779,-2.39902781,-1,-0.9748955077004107
4.18043699e+02,7.49947848e+01,-3.63013855e-06,4.14580834,2.12146836,-1.84509859,7.15400009e-01,4.48623515e-05,6.71301489,-2.38837058,-1,-0.9740089413387918
4.28954211e+02,7.49947452e+01,-3.62902014e-06,4.14801261,2.11659525,-1.84509860,7.15400010e-01,4.48623514e-05,6.71658035,-2.37753505,-1,-0.9731016701236718
4.40160380e+02,7.49947046e+01,-3.62944382e-06,4.15022605,2.11176275,-1.84509861,7.15400011e-01,4.48623513e-05,6.72021247,-2.36649747,-1,-0.9721698133450468
4.51717505e+02,7.49946626e+01,-3.63169804e-06,4.15245039,2.10697843,-1.84509862,7.15400013e-01,4.48623511e-05,6.72392370,-2.35522006,-1,-0.9712087725761036
4.63310846e+02,7.49946204e+01,-3.63415966e-06,4.15467569,2.10219954,-1.84509864,7.15400016e-01,4.48623510e-05,6.72764299,-2.34391817,-1,-0.9702447202404872
4.75642434e+02,7.49945754e+01,-3.64084911e-06,4.15692042,2.09753129,-1.84509865,7.15400018e-01,4.48623508e-05,6.73152639,-2.33211722,-1,-0.9692192784620337
4.87974021e+02,7.49945304e+01,-3.64753855e-06,4.15916515,2.09286304,-1.84509867,7.15400021e-01,4.48623506e-05,6.73540978,-2.32031627,-1,-0.9681938367667359
5.00573240e+02,7.49944842e+01,-3.65743033e-06,4.16141832,2.08822458,-1.84509868,7.15400022e-01,4.48623504e-05,6.73935466,-2.30833039,-1,-0.9671461399463032
5.13701691e+02,7.49944357e+01,-3.67365461e-06,4.16368821,2.08364506,-1.84509868,7.15400022e-01,4.48623504e-05,6.74342112,-2.29597882,-1,-0.966054434470757
5.26873898e+02,7.49943871e+01,-3.69015968e-06,4.16595987,2.07907061,-1.84509868,7.15400022e-01,4.48623504e-05,6.74749737,-2.28359780,-1,-0.9649590904345924
5.40736357e+02,7.49943354e+01,-3.71109428e-06,4.16825949,2.07457634,-1.84509868,7.15400023e-01,4.48623503e-05,6.75172814,-2.27075210,-1,-0.9638063480132028
5.54598817e+02,7.49942836e+01,-3.73202888e-06,4.17055912,2.07008207,-1.84509869,7.15400024e-01,4.48623503e-05,6.75595891,-2.25790640,-1,-0.9626536055086574
5.69223276e+02,7.49942283e+01,-3.75428180e-06,4.17289059,2.06569601,-1.84509871,7.15400027e-01,4.48623501e-05,6.76035513,-2.24456738,-1,-0.9614374984471921
5.83874490e+02,7.49941728e+01,-3.77658101e-06,4.17522317,2.06131375,-1.84509873,7.15400030e-01,4.48623498e-05,6.76475717,-2.23121104,-1,-0.96021916655509
5.99077577e+02,7.49941146e+01,-3.80297854e-06,4.17758122,2.05700211,-1.84509875,7.15400033e-01,4.48623496e-05,6.76927835,-2.21750283,-1,-0.9589549432797694
6.14665616e+02,7.49940543e+01,-3.83223481e-06,4.17995705,2.05273973,-1.84509878,7.15400036e-01,4.48623494e-05,6.77388265,-2.20354917,-1,-0.9576587090531018
6.30253656e+02,7.49939941e+01,-3.86149108e-06,4.18233287,2.04847735,-1.84509881,7.15400039e-01,4.48623491e-05,6.77848695,-2.18959552,-1,-0.9563624747432785
6.46697427e+02,7.49939288e+01,-3.91085522e-06,4.18476505,2.04426086,-1.84509880,7.15400038e-01,4.48623492e-05,6.78328058,-2.17508170,-1,-0.9549950815268718
6.63227773e+02,7.49938631e+01,-3.96225367e-06,4.18720294,2.04004901,-1.84509879,7.15400036e-01,4.48623493e-05,6.78809336,-2.16051122,-1,-0.9536204891061153
6.80345109e+02,7.49937936e+01,-4.01735169e-06,4.18968177,2.03586942,-1.84509879,7.15400036e-01,4.48623493e-05,6.79303331,-2.14556894,-1,-0.9521970851235765
6.97723154e+02,7.49937225e+01,-4.07409286e-06,4.19217878,2.03170415,-1.84509879,7.15400036e-01,4.48623492e-05,6.79802974,-2.13046152,-1,-0.9507520017027838
7.15654687e+02,7.49936476e+01,-4.13575678e-06,4.19471689,2.02756420,-1.84509879,7.15400036e-01,4.48623492e-05,6.80314464,-2.11501139,-1,-0.9492608926023243
7.33845129e+02,7.49935709e+01,-4.19972347e-06,4.19727422,2.02343608,-1.84509879,7.15400035e-01,4.48623493e-05,6.80831495,-2.09940094,-1,-0.9477482537438628
7.52724695e+02,7.49934894e+01,-4.26149159e-06,4.19987253,2.01936243,-1.84509879,7.15400038e-01,4.48623490e-05,6.81362870,-2.08337614,-1,-0.946178310299801
7.71802495e+02,7.49934065e+01,-4.32262727e-06,4.20248262,2.01530444,-1.84509879,7.15400042e-01,4.48623486e-05,6.81898372,-2.06723215,-1,-0.9445918825695703
7.91501137e+02,7.49933187e+01,-4.38975202e-06,4.20513874,2.01126571,-1.84509880,7.15400045e-01,4.48623484e-05,6.82447160,-2.05070807,-1,-0.9429538282909485
8.11618399e+02,7.49932277e+01,-4.46091506e-06,4.20782588,2.00723996,-1.84509882,7.15400048e-01,4.48623482e-05,6.83004905,-2.03392771,-1,-0.9412809633750192
8.31852657e+02,7.49931356e+01,-4.53743670e-06,4.21052699,2.00320279,-1.84509884,7.15400050e-01,4.48623480e-05,6.83565084,-2.01707773,-1,-0.939598369575323
8.52968133e+02,7.49930351e+01,-4.65431943e-06,4.21333328,1.99907961,-1.84509881,7.15400047e-01,4.48623482e-05,6.84143592,-1.99970331,-1,-0.9378424974798286
8.74183290e+02,7.49929337e+01,-4.77164149e-06,4.21615047,1.99494812,-1.84509878,7.15400044e-01,4.48623484e-05,6.84723941,-1.98227730,-1,-0.9360783363414374
8.96172566e+02,7.49928243e+01,-4.89237544e-06,4.21905228,1.99075213,-1.84509877,7.15400042e-01,4.48623485e-05,6.85318586,-1.96445069,-1,-0.9342498027990951
9.18426141e+02,7.49927120e+01,-5.01544231e-06,4.22198759,1.98652553,-1.84509876,7.15400041e-01,4.48623487e-05,6.85918856,-1.94646421,-1,-0.9323992912895516
9.41210379e+02,7.49925939e+01,-5.14319324e-06,4.22499013,1.98223749,-1.84509875,7.15400040e-01,4.48623488e-05,6.86530421,-1.92815678,-1,-0.930504652129094
9.64508183e+02,7.49924696e+01,-5.27754206e-06,4.22805549,1.97788478,-1.84509874,7.15400038e-01,4.48623489e-05,6.87151693,-1.90957740,-1,-0.9285673070306506
9.88127991e+02,7.49923415e+01,-5.41419867e-06,4.23115602,1.97349891,-1.84509874,7.15400038e-01,4.48623490e-05,6.87779012,-1.89082901,-1,-0.9266031854655893
1.01257489e+03,7.49922038e+01,-5.53848048e-06,4.23430460,1.96910189,-1.84509876,7.15400046e-01,4.48623483e-05,6.88421451,-1.87166148,-1,-0.9245702865730676
1.03726463e+03,7.49920630e+01,-5.66548651e-06,4.23746977,1.96469002,-1.84509876,7.15400051e-01,4.48623478e-05,6.89068142,-1.85237689,-1,-0.9225171940682616
1.06276129e+03,7.49919120e+01,-5.80154479e-06,4.24069007,1.96022881,-1.84509869,7.15400043e-01,4.48623483e-05,6.89728966,-1.83270332,-1,-0.9203970015695319
1.08836447e+03,7.49917593e+01,-5.94597734e-06,4.24392482,1.95574444,-1.84509863,7.15400036e-01,4.48623488e-05,6.90391658,-1.81297812,-1,-0.9182679513261028
1.11481605e+03,7.49915930e+01,-6.15711086e-06,4.24727462,1.95107553,-1.84509859,7.15400023e-01,4.48623499e-05,6.91069235,-1.79284161,-1,-0.9160683517904951
1.14159137e+03,7.49914213e+01,-6.36708199e-06,4.25066582,1.94633971,-1.84509856,7.15400015e-01,4.48623507e-05,6.91752161,-1.77255876,-1,-0.9138418314299817
1.16887082e+03,7.49912411e+01,-6.57524303e-06,4.25412149,1.94149971,-1.84509855,7.15400011e-01,4.48623510e-05,6.92443418,-1.75204802,-1,-0.9115733897886265
1.19680245e+03,7.49910492e+01,-6.78738375e-06,4.25766034,1.93651794,-1.84509854,7.15400010e-01,4.48623511e-05,6.93144836,-1.73126171,-1,-0.9092507156656906
1.22513977e+03,7.49908497e+01,-7.00376147e-06,4.26125405,1.93143699,-1.84509854,7.15400008e-01,4.48623512e-05,6.93852295,-1.71031258,-1,-0.9068943061085917
1.25391665e+03,7.49906417e+01,-7.22550987e-06,4.26490877,1.92624333,-1.84509853,7.15400007e-01,4.48623513e-05,6.94566167,-1.68919103,-1,-0.9045013446339183
1.28335688e+03,7.49904199e+01,-7.45789147e-06,4.26867491,1.92082831,-1.84509853,7.15400006e-01,4.48623514e-05,6.95288881,-1.66783674,-1,-0.9020532218285439
1.31316038e+03,7.49901889e+01,-7.69743778e-06,4.27254357,1.91519788,-1.84509852,7.15400006e-01,4.48623515e-05,6.96015302,-1.64638945,-1,-0.8995748910536152
1.34314389e+03,7.49899499e+01,-7.94351226e-06,4.27659060,1.90918533,-1.84509852,7.15400005e-01,4.48623515e-05,6.96740790,-1.62498726,-1,-0.8970815914219149
1.37313304e+03,7.49897041e+01,-8.19597136e-06,4.28088302,1.90264224,-1.84509851,7.15400004e-01,4.48623516e-05,6.97460996,-1.60375938,-1,-0.8945878227920913
1.40351778e+03,7.49894450e+01,-8.47050333e-06,4.28532276,1.89576561,-1.84509850,7.15400000e-01,4.48623520e-05,6.98183359,-1.58249003,-1,-0.8920611586006304
1.43426774e+03,7.49891745e+01,-8.75657598e-06,4.28985313,1.88867918,-1.84509850,7.15399999e-01,4.48623521e-05,6.98908377,-1.56115896,-1,-0.8895041242860088
1.46539526e+03,7.49888921e+01,-9.04934252e-06,4.29446684,1.88139553,-1.84509850,7.15399999e-01,4.48623521e-05,6.99636135,-1.53976532,-1,-0.8869156937069423
1.49692704e+03,7.49885969e+01,-9.34741903e-06,4.29915809,1.87392267,-1.84509850,7.15399999e-01,4.48623521e-05,7.00366806,-1.51830288,-1,-0.8842936466063576
1.52888813e+03,7.49882882e+01,-9.65110788e-06,4.30391963,1.86627152,-1.84509850,7.15399999e-01,4.48623521e-05,7.01100569,-1.49676574,-1,-0.8816358999340788
1.56130384e+03,7.49879651e+01,-9.96060282e-06,4.30874386,1.85845390,-1.84509850,7.15399999e-01,4.48623521e-05,7.01837625,-1.47514738,-1,-0.8789403490194492
1.59420060e+03,7.49876270e+01,-1.02758265e-05,4.31362323,1.85048182,-1.84509849,7.15399999e-01,4.48623521e-05,7.02578196,-1.45343975,-1,-0.8762047960574333
1.62770563e+03,7.49872719e+01,-1.05800972e-05,4.31853048,1.84240602,-1.84509849,7.15400000e-01,4.48623520e-05,7.03324241,-1.43158797,-1,-0.873418661980432
1.66190483e+03,7.49869002e+01,-1.08535108e-05,4.32342495,1.83431058,-1.84509849,7.15400000e-01,4.48623520e-05,7.04077685,-1.40953305,-1,-0.8705748037141903
1.69689244e+03,7.49865083e+01,-1.11303992e-05,4.32832336,1.82614253,-1.84509849,7.15400000e-01,4.48623520e-05,7.04838204,-1.38728661,-1,-0.867665384665951
1.73226210e+03,7.49861001e+01,-1.14914184e-05,4.33329806,1.81776818,-1.84509849,7.15400000e-01,4.48623519e-05,7.05599362,-1.36503206,-1,-0.8647241959841934
1.76807990e+03,7.49856745e+01,-1.18669376e-05,4.33833507,1.80921561,-1.84509849,7.15400001e-01,4.48623519e-05,7.06361946,-1.34274592,-1,-0.8617457419089929
1.80442509e+03,7.49852300e+01,-1.22282419e-05,4.34342034,1.80051031,-1.84509849,7.15400001e-01,4.48623519e-05,7.07126859,-1.32040292,-1,-0.8587234323514702
1.84135636e+03,7.49847654e+01,-1.25837877e-05,4.34854161,1.79167339,-1.84509849,7.15400001e-01,4.48623518e-05,7.07894774,-1.29798187,-1,-0.8556523869038484
1.87924804e+03,7.49842754e+01,-1.29393605e-05,4.35361826,1.78287311,-1.84509849,7.15400002e-01,4.48623518e-05,7.08672787,-1.27527395,-1,-0.8525014778945794
1.91835277e+03,7.49837561e+01,-1.32594859e-05,4.35861102,1.77417968,-1.84509849,7.15400002e-01,4.48623517e-05,7.09464136,-1.25218439,-1,-0.8492496968687175
1.95812640e+03,7.49832154e+01,-1.35507463e-05,4.36363642,1.76533943,-1.84509849,7.15400003e-01,4.48623516e-05,7.10257137,-1.22905378,-1,-0.8459422929980438
1.99830438e+03,7.49826582e+01,-1.38598571e-05,4.36872269,1.75630875,-1.84509849,7.15400004e-01,4.48623516e-05,7.11048504,-1.20597589,-1,-0.8426012651218391
2.03923321e+03,7.49820746e+01,-1.42563640e-05,4.37383307,1.74716548,-1.84509849,7.15400004e-01,4.48623515e-05,7.11843469,-1.18279469,-1,-0.8391977997915652
2.08082965e+03,7.49814662e+01,-1.46256825e-05,4.37898258,1.73787769,-1.84509849,7.15400005e-01,4.48623514e-05,7.12639785,-1.15957846,-1,-0.8357388188873266
2.12319696e+03,7.49808316e+01,-1.49810757e-05,4.38414974,1.72848665,-1.84509850,7.15400006e-01,4.48623514e-05,7.13438902,-1.13628252,-1,-0.8322157357519921
2.16616595e+03,7.49801731e+01,-1.53190957e-05,4.38936756,1.71891948,-1.84509850,7.15400006e-01,4.48623513e-05,7.14236937,-1.11301822,-1,-0.8286426194977066
2.21007526e+03,7.49794878e+01,-1.56068206e-05,4.39456019,1.70933411,-1.84509850,7.15400007e-01,4.48623512e-05,7.15040017,-1.08960702,-1,-0.8249913102796993
2.25463751e+03,7.49787759e+01,-1.58866086e-05,4.39982860,1.69950339,-1.84509850,7.15400008e-01,4.48623511e-05,7.15838310,-1.06633428,-1,-0.8212857053817826
2.29993010e+03,7.49780388e+01,-1.62449696e-05,4.40509710,1.68963233,-1.84509850,7.15400009e-01,4.48623510e-05,7.16639952,-1.04296341,-1,-0.8175193685531139
