star_age,star_mass,star_mdot,log_L,log_Teff,log_R,log_surf_z,v_wind_Km_per_s,log_center_T,log_center_Rho,phase
4.14441753e+02,3.39999977,-4.75252627e-10,2.90326798,3.63870496,1.69690122,-2.34509854,6.69598899e-05,5.72242828,-3.56537088,-1
4.33685405e+02,3.39999976,-4.69449408e-10,2.91251471,3.64224823,1.69443806,-2.34509854,8.04749834e-05,5.72452356,-3.55909932,-1
4.54470096e+02,3.39999975,-4.76299861e-10,2.91177269,3.64324520,1.69207311,-2.34509854,8.47224667e-05,5.72676621,-3.55238225,-1
4.76432194e+02,3.39999974,-4.71278423e-10,2.90815800,3.64354778,1.68966060,-2.34509854,8.47640801e-05,5.72910439,-3.54537750,-1
4.99487657e+02,3.39999973,-4.65037490e-10,2.90432710,3.64383684,1.68716703,-2.34509854,8.46078892e-05,5.73152190,-3.53813670,-1
5.23620311e+02,3.39999972,-4.58633849e-10,2.90041090,3.64414362,1.68459535,-2.34509854,8.44381461e-05,5.73401519,-3.53066729,-1
5.48891542e+02,3.39999971,-4.51822701e-10,2.89637409,3.64446073,1.68194274,-2.34509854,8.42090771e-05,5.73658721,-3.52296178,-1
5.75362266e+02,3.39999970,-4.44717307e-10,2.89227638,3.64480460,1.67920613,-2.34509854,8.39399970e-05,5.73924059,-3.51501270,-1
6.03080879e+02,3.39999969,-4.37660801e-10,2.88798959,3.64514305,1.67638584,-2.34509854,8.36933463e-05,5.74197574,-3.50681844,-1
6.32103227e+02,3.39999967,-4.30369742e-10,2.88351229,3.64547595,1.67348139,-2.34509854,8.34134268e-05,5.74479295,-3.49837779,-1
6.62667615e+02,3.39999966,-4.22976292e-10,2.87920138,3.64590066,1.67047652,-2.34509854,8.31302982e-05,5.74770663,-3.48964815,-1
6.94643454e+02,3.39999965,-4.15521292e-10,2.87445867,3.64625946,1.66738756,-2.34509854,8.28424322e-05,5.75070328,-3.48067013,-1
7.28078284e+02,3.39999963,-4.07921095e-10,2.86957682,3.64662611,1.66421334,-2.34509854,8.25347725e-05,5.75378310,-3.47144343,-1
7.63127646e+02,3.39999962,-4.00274152e-10,2.86455262,3.64700244,1.66094859,-2.34509854,8.22256181e-05,5.75695084,-3.46195202,-1
7.99949397e+02,3.39999961,-3.92547416e-10,2.85935961,3.64738427,1.65758841,-2.34509854,8.19066063e-05,5.76021175,-3.45218164,-1
8.38400369e+02,3.39999959,-3.84658766e-10,2.85402126,3.64777202,1.65414374,-2.34509854,8.15581961e-05,5.76355496,-3.44216382,-1
8.78792115e+02,3.39999958,-3.76738207e-10,2.84866774,3.64820521,1.65060061,-2.34509854,8.12083490e-05,5.76699323,-3.43185938,-1
9.21055784e+02,3.39999956,-3.68824056e-10,2.84303395,3.64861275,1.64696862,-2.34509854,8.08601425e-05,5.77051876,-3.42129332,-1
9.65382802e+02,3.39999954,-3.60936613e-10,2.83752852,3.64910140,1.64323861,-2.34509854,8.05237189e-05,5.77413866,-3.41044370,-1
1.01176763e+03,3.39999953,-3.53072856e-10,2.83177984,3.64957456,1.63941794,-2.34509854,8.01906045e-05,5.77784713,-3.39932960,-1
1.06044862e+03,3.39999951,-3.45161573e-10,2.82577547,3.65003215,1.63550059,-2.34509854,7.98432497e-05,5.78165063,-3.38792824,-1
1.11132837e+03,3.39999949,-3.37209312e-10,2.81958096,3.65048601,1.63149562,-2.34509854,7.94810914e-05,5.78553991,-3.37626975,-1
1.16473237e+03,3.39999948,-3.29235407e-10,2.81317790,3.65093537,1.62739537,-2.34509854,7.91057076e-05,5.78952237,-3.36433239,-1
1.22068024e+03,3.39999946,-3.21209728e-10,2.80673204,3.65142037,1.62320243,-2.34509854,7.87103863e-05,5.79359518,-3.35212444,-1
1.27922136e+03,3.39999944,-3.13238324e-10,2.80018988,3.65192691,1.61891828,-2.34509854,7.83188167e-05,5.79775685,-3.33964863,-1
1.34052107e+03,3.39999942,-3.05466020e-10,2.79360028,3.65246826,1.61454077,-2.34509854,7.79676032e-05,5.80200973,-3.32690012,-1
1.40485106e+03,3.39999940,-2.97517598e-10,2.78660921,3.65295536,1.61007103,-2.34509854,7.75500637e-05,5.80635376,-3.31387740,-1
1.47223459e+03,3.39999938,-2.89754685e-10,2.77982500,3.65354164,1.60550638,-2.34509854,7.71727824e-05,5.81078920,-3.30058108,-1
1.54277150e+03,3.39999936,-2.82012008e-10,2.77260889,3.65406322,1.60085516,-2.34509854,7.67743528e-05,5.81531059,-3.28702597,-1
1.61665440e+03,3.39999934,-2.74259922e-10,2.76533495,3.65461484,1.59611495,-2.34509854,7.63531038e-05,5.81991859,-3.27320900,-1
1.69404819e+03,3.39999932,-2.66733320e-10,2.75798588,3.65519261,1.59128488,-2.34509854,7.59728458e-05,5.82461466,-3.25912891,-1
1.77510175e+03,3.39999930,-2.59140084e-10,2.75049363,3.65577850,1.58636697,-2.34509854,7.55475923e-05,5.82939696,-3.24478962,-1
1.85998452e+03,3.39999928,-2.51738215e-10,2.74277737,3.65635129,1.58136326,-2.34509854,7.51464564e-05,5.83426377,-3.23019682,-1
1.94888105e+03,3.39999926,-2.44329775e-10,2.73497178,3.65694438,1.57627427,-2.34509854,7.47138126e-05,5.83921438,-3.21535258,-1
2.04194275e+03,3.39999923,-2.37020975e-10,2.72690821,3.65751357,1.57110411,-2.34509854,7.42730641e-05,5.84424489,-3.20026568,-1
2.13943944e+03,3.39999921,-2.29904356e-10,2.71893394,3.65814797,1.56584818,-2.34509854,7.38632090e-05,5.84935902,-3.18492694,-1
2.24165703e+03,3.39999919,-2.22819149e-10,2.71076696,3.65877601,1.56050861,-2.34509854,7.34222127e-05,5.85455536,-3.16934102,-1
2.34863325e+03,3.39999916,-2.15859775e-10,2.70233026,3.65937453,1.55509323,-2.34509854,7.29756416e-05,5.85982685,-3.15352972,-1
2.46064010e+03,3.39999914,-2.08994178e-10,2.69407324,3.66005819,1.54959738,-2.34509854,7.25278944e-05,5.86517651,-3.13748469,-1
2.57792295e+03,3.39999912,-2.02356700e-10,2.68549053,3.66069924,1.54402394,-2.34509854,7.21068233e-05,5.87060316,-3.12120379,-1
2.70080955e+03,3.39999909,-1.95821458e-10,2.67668242,3.66132046,1.53837744,-2.34509854,7.16691362e-05,5.87610289,-3.10470404,-1
2.82940068e+03,3.39999907,-1.89336665e-10,2.66792131,3.66199001,1.53265778,-2.34509854,7.12058317e-05,5.88167473,-3.08798765,-1
2.96411357e+03,3.39999904,-1.82947746e-10,2.65887445,3.66262409,1.52686621,-2.34509854,7.07166262e-05,5.88731814,-3.07105878,-1
3.10517794e+03,3.39999902,-1.76850095e-10,2.64989286,3.66331026,1.52100306,-2.34509854,7.02917654e-05,5.89303140,-3.05391933,-1
3.25288799e+03,3.39999899,-1.70832868e-10,2.64073789,3.66397836,1.51508937,-2.34509854,6.98324953e-05,5.89871032,-3.03677915,-1
3.40758241e+03,3.39999897,-1.64882075e-10,2.63143200,3.66464274,1.50910768,-2.34509854,6.93384657e-05,5.90451040,-3.01934269,-1
3.56958314e+03,3.39999894,-1.59120781e-10,2.62223692,3.66536971,1.50305619,-2.34509854,6.88714015e-05,5.91040006,-3.00166043,-1
3.73909353e+03,3.39999891,-1.53586957e-10,2.61261631,3.66602014,1.49694502,-2.34509854,6.84258032e-05,5.91635687,-2.98378276,-1
3.91674040e+03,3.39999889,-1.48113065e-10,2.60312778,3.66674135,1.49075834,-2.34509854,6.79551324e-05,5.92239050,-2.96567736,-1
4.10251221e+03,3.39999886,-1.42770229e-10,2.59344695,3.66744140,1.48451782,-2.34509854,6.74719568e-05,5.92847794,-2.94740968,-1
4.29723103e+03,3.39999883,-1.37485907e-10,2.58351098,3.66810507,1.47822251,-2.34509854,6.69343902e-05,5.93462079,-2.92897689,-1
4.50115541e+03,3.39999881,-1.32460781e-10,2.57384468,3.66886797,1.47186355,-2.34509854,6.64681581e-05,5.94082642,-2.91035541,-1
4.71451133e+03,3.39999878,-1.27553800e-10,2.56380990,3.66956697,1.46544816,-2.34509853,6.59775585e-05,5.94708974,-2.89156072,-1
4.93782849e+03,3.39999875,-1.22788968e-10,2.55364476,3.67025650,1.45898653,-2.34509853,6.54815742e-05,5.95339932,-2.87262823,-1
5.17166938e+03,3.39999872,-1.18101243e-10,2.54345412,3.67096287,1.45247847,-2.34509853,6.49494059e-05,5.95975563,-2.85355484,-1
5.41679907e+03,3.39999870,-1.13716705e-10,2.53338571,3.67172732,1.44591536,-2.34509853,6.45162302e-05,5.96616714,-2.83431439,-1
5.67327252e+03,3.39999867,-1.09433874e-10,2.52301666,3.67243864,1.43930820,-2.34509852,6.40540512e-05,5.97262415,-2.81493768,-1
5.94174295e+03,3.39999864,-1.05236586e-10,2.51269140,3.67318602,1.43265081,-2.34509852,6.35707382e-05,5.97913150,-2.79540970,-1
6.22261076e+03,3.39999861,-1.01154892e-10,2.50210435,3.67388509,1.42595914,-2.34509852,6.30646765e-05,5.98567381,-2.77577828,-1
6.51705275e+03,3.39999858,-9.71772547e-11,2.49152293,3.67460387,1.41923087,-2.34509851,6.25387518e-05,5.99225339,-2.75603402,-1
6.82524272e+03,3.39999855,-9.33602068e-11,2.48091848,3.67533759,1.41246122,-2.34509851,6.20350403e-05,5.99887471,-2.73616522,-1
7.14798970e+03,3.39999852,-8.96838797e-11,2.47049822,3.67614430,1.40563767,-2.34509851,6.15580847e-05,6.00554995,-2.71613544,-1
7.48562664e+03,3.39999849,-8.61698285e-11,2.45967717,3.67686373,1.39878828,-2.34509850,6.10890268e-05,6.01225319,-2.69602276,-1
7.83920021e+03,3.39999846,-8.27021839e-11,2.44899738,3.67764104,1.39189376,-2.34509850,6.05811637e-05,6.01900220,-2.67577211,-1
8.20936138e+03,3.39999843,-7.94083534e-11,2.43806783,3.67837261,1.38496585,-2.34509850,6.01045810e-05,6.02578555,-2.65542170,-1
8.59694247e+03,3.39999840,-7.61971242e-11,2.42703571,3.67909816,1.37799869,-2.34509849,5.96036923e-05,6.03260858,-2.63494899,-1
9.00287210e+03,3.39999837,-7.31078472e-11,2.41616287,3.67987626,1.37100607,-2.34509849,5.91205760e-05,6.03945724,-2.61439796,-1
9.42758612e+03,3.39999834,-7.01275956e-11,2.40499920,3.68059458,1.36398760,-2.34509849,5.86246904e-05,6.04633364,-2.59376414,-1
9.87231138e+03,3.39999831,-6.72460418e-11,2.39387831,3.68133770,1.35694091,-2.34509849,5.81286981e-05,6.05323927,-2.57304357,-1
1.03380379e+04,3.39999828,-6.44922663e-11,2.38286870,3.68212775,1.34985600,-2.34509848,5.76684535e-05,6.06018355,-2.55220749,-1
1.08254232e+04,3.39999825,-6.18261141e-11,2.37160849,3.68286257,1.34275626,-2.34509848,5.71838459e-05,6.06714432,-2.53132152,-1
1.13355878e+04,3.39999822,-5.92642492e-11,2.36023661,3.68358054,1.33563437,-2.34509848,5.67028977e-05,6.07412842,-2.51036734,-1
1.18698663e+04,3.39999819,-5.67999612e-11,2.34897294,3.68433495,1.32849372,-2.34509848,5.62347026e-05,6.08113184,-2.48935349,-1
1.24293298e+04,3.39999816,-5.44250626e-11,2.33769299,3.68509591,1.32133183,-2.34509848,5.57679965e-05,6.08815744,-2.46827279,-1
1.30148861e+04,3.39999813,-5.21461996e-11,2.32627034,3.68582652,1.31415928,-2.34509848,5.53016590e-05,6.09519547,-2.44715521,-1
1.36281997e+04,3.39999810,-4.99766874e-11,2.31499724,3.68660787,1.30696003,-2.34509848,5.48791406e-05,6.10226145,-2.42595443,-1
1.42702862e+04,3.39999807,-4.78801919e-11,2.30361600,3.68736096,1.29976322,-2.34509848,5.44376419e-05,6.10932692,-2.40475661,-1
1.49423084e+04,3.39999803,-4.58714895e-11,2.29207271,3.68807431,1.29256489,-2.34509848,5.39946744e-05,6.11639590,-2.38355008,-1
1.56462801e+04,3.39999800,-4.39390156e-11,2.28069811,3.68882919,1.28536783,-2.34509847,5.35621190e-05,6.12346461,-2.36234371,-1
1.63831299e+04,3.39999797,-4.20904629e-11,2.26914255,3.68953215,1.27818412,-2.34509847,5.31241610e-05,6.13052176,-2.34117081,-1
1.71552810e+04,3.39999794,-4.03278777e-11,2.25789549,3.69030696,1.27101098,-2.34509847,5.27251631e-05,6.13756912,-2.32002723,-1
1.79639251e+04,3.39999791,-3.86574761e-11,2.24662957,3.69106875,1.26385443,-2.34509847,5.23534733e-05,6.14460152,-2.29892752,-1
1.88105297e+04,3.39999788,-3.70437714e-11,2.23524654,3.69177659,1.25674723,-2.34509847,5.19457927e-05,6.15158777,-2.27796711,-1
1.96973832e+04,3.39999784,-3.55157595e-11,2.22392719,3.69247076,1.24969922,-2.34509847,5.15566585e-05,6.15851754,-2.25717823,-1
2.06264506e+04,3.39999781,-3.40531393e-11,2.21270604,3.69315202,1.24272614,-2.34509847,5.11592352e-05,6.16537519,-2.23660634,-1
2.16000390e+04,3.39999778,-3.26741422e-11,2.20167455,3.69383251,1.23584940,-2.34509847,5.07870614e-05,6.17213896,-2.21631492,-1
2.26208280e+04,3.39999775,-3.13808506e-11,2.19092988,3.69453180,1.22907849,-2.34509847,5.04541322e-05,6.17879986,-2.19633287,-1
2.36915104e+04,3.39999772,-3.01612694e-11,2.18038698,3.69519839,1.22247386,-2.34509847,5.01202075e-05,6.18529843,-2.17683755,-1
2.48140728e+04,3.39999768,-2.90224762e-11,2.17008603,3.69583423,1.21605171,-2.34509847,4.98026952e-05,6.19161855,-2.15787836,-1
2.59910179e+04,3.39999765,-2.79565770e-11,2.16008268,3.69643487,1.20984876,-2.34509847,4.94865453e-05,6.19772421,-2.13956238,-1
2.72256500e+04,3.39999762,-2.69720387e-11,2.15047070,3.69701080,1.20389089,-2.34509847,4.91945293e-05,6.20358996,-2.12196789,-1
2.85227926e+04,3.39999758,-2.60653424e-11,2.14151243,3.69760765,1.19821806,-2.34509847,4.89386236e-05,6.20917570,-2.10521536,-1
2.98826753e+04,3.39999755,-2.52365053e-11,2.13287449,3.69814115,1.19283209,-2.34509847,4.86972681e-05,6.21448000,-2.08930420,-1
3.13099627e+04,3.39999751,-2.44777669e-11,2.12467051,3.69861924,1.18777392,-2.34509847,4.84574244e-05,6.21946197,-2.07436142,-1
3.28092145e+04,3.39999748,-2.37862683e-11,2.11704083,3.69909023,1.18301711,-2.34509847,4.82483620e-05,6.22414711,-2.06030926,-1
3.43817673e+04,3.39999744,-2.31529134e-11,2.10977640,3.69951125,1.17854285,-2.34509847,4.80439483e-05,6.22855471,-2.04708937,-1
3.60312047e+04,3.39999740,-2.25682987e-11,2.10289255,3.69990036,1.17432270,-2.34509847,4.78463336e-05,6.23271207,-2.03461949,-1
3.77603125e+04,3.39999736,-2.20250923e-11,2.09632847,3.70028486,1.17027166,-2.34509847,4.76740192e-05,6.23670353,-2.02264892,-1
3.95742603e+04,3.39999732,-2.15263883e-11,2.09031083,3.70075484,1.16632289,-2.34509847,4.75924111e-05,6.24059430,-2.01097912,-1
4.14779311e+04,3.39999728,-2.10325834e-11,2.08397448,3.70112145,1.16242150,-2.34509847,4.74425010e-05,6.24443921,-1.99944687,-1
4.34702526e+04,3.39999724,-2.05452852e-11,2.07748537,3.70149167,1.15843650,-2.34509847,4.73032021e-05,6.24836725,-1.98766422,-1
4.55537660e+04,3.39999720,-2.00457018e-11,2.07075509,3.70188011,1.15429447,-2.34509847,4.71518257e-05,6.25245051,-1.97541747,-1
4.77381337e+04,3.39999716,-1.95310839e-11,2.06377793,3.70234302,1.14988008,-2.34509847,4.70271159e-05,6.25680266,-1.96236326,-1
5.00225967e+04,3.39999711,-1.89829289e-11,2.05598484,3.70278649,1.14509659,-2.34509847,4.68546143e-05,6.26151957,-1.94821490,-1
5.24086175e+04,3.39999707,-1.83966311e-11,2.04738603,3.70326531,1.13983954,-2.34509847,4.66614069e-05,6.26670380,-1.93266425,-1
5.48977593e+04,3.39999703,-1.77600158e-11,2.03783558,3.70379604,1.13400285,-2.34509847,4.64343615e-05,6.27246019,-1.91539911,-1
5.74980580e+04,3.39999698,-1.70758600e-11,2.02740009,3.70446342,1.12745036,-2.34509847,4.62319186e-05,6.27892299,-1.89601509,-1
6.02011032e+04,3.39999694,-1.63379062e-11,2.01555203,3.70515376,1.12014564,-2.34509847,4.59706566e-05,6.28612916,-1.87440330,-1
6.30123696e+04,3.39999689,-1.55505120e-11,2.00239247,3.70591125,1.11205089,-2.34509847,4.56662102e-05,6.29411635,-1.85044761,-1
6.59342170e+04,3.39999685,-1.47436645e-11,1.98813254,3.70674710,1.10324922,-2.34509847,4.53723480e-05,6.30280188,-1.82439701,-1
6.89672164e+04,3.39999680,-1.39280884e-11,1.97316206,3.70765205,1.09395407,-2.34530388,4.50531201e-05,6.30992006,-1.79221919,-1
7.21318875e+04,3.39999676,-1.31624125e-11,1.95805147,3.70856663,1.08456963,-2.34535370,4.47863736e-05,6.31658865,-1.75797342,-1
7.54458932e+04,3.39999672,-1.24464764e-11,1.94309797,3.70947956,1.07526702,-2.34536838,4.45419088e-05,6.32381850,-1.72426902,-1
7.89166528e+04,3.39999668,-1.17739894e-11,1.92822345,3.71035595,1.06607697,-2.34538440,4.42822518e-05,6.33122511,-1.69140815,-1
8.25530329e+04,3.39999664,-1.11478701e-11,1.91366230,3.71126534,1.05697763,-2.34540085,4.40732945e-05,6.33880509,-1.65888105,-1
8.63603394e+04,3.39999660,-1.05631140e-11,1.89920603,3.71214738,1.04798541,-2.34541364,4.38696171e-05,6.34648601,-1.62667333,-1
9.03494303e+04,3.39999655,-1.00131705e-11,1.88506297,3.71304792,1.03911281,-2.34558451,4.36781952e-05,6.35421340,-1.59479139,-1
9.45247176e+04,3.39999651,-9.50282244e-12,1.87091397,3.71388521,1.03036372,-2.34547767,4.34871408e-05,6.36195237,-1.56315897,-1
9.88970900e+04,3.39999647,-9.01967365e-12,1.85695459,3.71471689,1.02172067,-2.34536417,4.32841455e-05,6.36970941,-1.53159035,-1
1.03479233e+05,3.39999643,-8.56878759e-12,1.84324504,3.71555196,1.01319576,-2.34526826,4.31041692e-05,6.37747002,-1.50014366,-1
1.08282354e+05,3.39999639,-8.15113569e-12,1.83004781,3.71646064,1.00477979,-2.34532681,4.30098467e-05,6.38522286,-1.46878801,-1
1.13307400e+05,3.39999635,-7.75629543e-12,1.81674464,3.71728055,9.96488382e-01,-2.34535171,4.28558954e-05,6.39295051,-1.43750495,-1
1.18572633e+05,3.39999631,-7.38659802e-12,1.80372495,3.71811112,9.88317393e-01,-2.34520384,4.27267278e-05,6.40066234,-1.40626492,-1
1.24090670e+05,3.39999628,-7.04044844e-12,1.79102950,3.71896631,9.80259278e-01,-2.34518858,4.26299320e-05,6.40836932,-1.37499178,-1
1.29862663e+05,3.39999624,-6.71349241e-12,1.77836700,3.71978277,9.72295106e-01,-2.34520412,4.25145375e-05,6.41607019,-1.34341457,-1
1.35915966e+05,3.39999620,-6.41048079e-12,1.76621190,3.72067189,9.64439313e-01,-2.34514602,4.24849856e-05,6.42377377,-1.31170205,-1
1.42252399e+05,3.39999616,-6.12350182e-12,1.75413675,3.72151644,9.56712646e-01,-2.34513300,4.24236986e-05,6.43146720,-1.27991215,-1
1.48890918e+05,3.39999612,-5.85471931e-12,1.74224442,3.72234058,9.49118198e-01,-2.34512893,4.23659861e-05,6.43915608,-1.24801357,-1
1.55845360e+05,3.39999608,-5.60193563e-12,1.73071411,3.72318957,9.41655075e-01,-2.34512193,4.23348188e-05,6.44685166,-1.21596314,-1
1.63133607e+05,3.39999604,-5.36700633e-12,1.71949469,3.72404709,9.34330312e-01,-2.34511233,4.23409184e-05,6.45456122,-1.18373976,-1
1.70770584e+05,3.39999600,-5.14675141e-12,1.70890508,3.72499456,9.27140570e-01,-2.34635561,4.24144530e-05,6.46229978,-1.15129541,-1
1.78769759e+05,3.39999596,-4.94320046e-12,1.69816213,3.72582437,9.20109483e-01,-2.34510771,4.24666909e-05,6.47006455,-1.11864625,-1
1.87148853e+05,3.39999592,-4.75038459e-12,1.68791852,3.72670036,9.13235700e-01,-2.34510449,4.25394460e-05,6.47787164,-1.08573400,-1
1.95936639e+05,3.39999588,-4.57315468e-12,1.67824818,3.72763475,9.06531743e-01,-2.34510395,4.26972815e-05,6.48573633,-1.05250965,-1
2.05142661e+05,3.39999584,-4.40752604e-12,1.66886978,3.72854798,9.00016081e-01,-2.34510138,4.28588978e-05,6.49366250,-1.01896976,-1
2.14786909e+05,3.39999579,-4.25423743e-12,1.65997475,3.72948134,8.93701846e-01,-2.34510006,4.30655598e-05,6.50166542,-9.85070353e-01,-1
2.24901273e+05,3.39999575,-4.11359931e-12,1.65195262,3.73052243,8.87608600e-01,-2.34651725,4.33810778e-05,6.50976460,-9.50752307e-01,-1
2.35500168e+05,3.39999571,-3.98627214e-12,1.64416025,3.73149989,8.81757503e-01,-2.34509974,4.37221928e-05,6.51796947,-9.15995923e-01,-1
2.46608465e+05,3.39999567,-3.87037950e-12,1.63712870,3.73252977,8.76181959e-01,-2.34509920,4.41355289e-05,6.52629731,-8.80750235e-01,-1
2.58249522e+05,3.39999562,-3.76628338e-12,1.63084430,3.73359149,8.70916312e-01,-2.34509890,4.46235100e-05,6.53476612,-8.44970092e-01,-1
2.70449593e+05,3.39999558,-3.67544880e-12,1.62556829,3.73473099,8.65999315e-01,-2.34509876,4.52437193e-05,6.54339990,-8.08598070e-01,-1
2.83234001e+05,3.39999553,-3.59724537e-12,1.62116051,3.73588613,8.61485154e-01,-2.34509867,4.59487950e-05,6.55222064,-7.71586003e-01,-1
2.96628928e+05,3.39999548,-3.53371042e-12,1.61799293,3.73711410,8.57445426e-01,-2.34509863,4.68107484e-05,6.56125868,-7.33869376e-01,-1
3.10656449e+05,3.39999543,-3.48586374e-12,1.61621532,3.73841520,8.53954413e-01,-2.34509858,4.78506169e-05,6.57054490,-6.95382849e-01,-1
3.25327881e+05,3.39999538,-3.45698336e-12,1.61621139,3.73983792,8.51107006e-01,-2.34509856,4.91590823e-05,6.58009612,-6.56211034e-01,-1
3.40662485e+05,3.39999533,-3.44673294e-12,1.61806464,3.74134283,8.49023803e-01,-2.34509855,5.07047875e-05,6.58997246,-6.16031449e-01,-1
3.56649766e+05,3.39999527,-3.46113625e-12,1.62219842,3.74296074,8.47854887e-01,-2.34509855,5.26015155e-05,6.60019702,-5.74923541e-01,-1
3.73259485e+05,3.39999522,-3.50611663e-12,1.62914104,3.74473151,8.47784654e-01,-2.34509855,5.49773525e-05,6.61080066,-5.32902134e-01,-1
3.90430935e+05,3.39999516,-3.58956018e-12,1.63931943,3.74666863,8.48999611e-01,-2.34509856,5.79758107e-05,6.62180194,-4.90014847e-01,-1
4.08045707e+05,3.39999509,-3.72248689e-12,1.65343125,3.74884376,8.51705255e-01,-2.34512033,6.18667591e-05,6.63319871,-4.46426481e-01,-1
4.25965621e+05,3.39999502,-3.91392306e-12,1.67151780,3.75124670,8.55942645e-01,-2.34509859,6.68506776e-05,6.64497505,-4.02299488e-01,-1
4.44076703e+05,3.39999495,-4.16828146e-12,1.69341074,3.75388006,8.61622398e-01,-2.34509861,7.31169839e-05,6.65710675,-3.57960946e-01,-1
4.62359693e+05,3.39999487,-4.48091638e-12,1.71812619,3.75676984,8.68200567e-01,-2.34509863,8.08770571e-05,6.66969465,-3.12853531e-01,-1
