star_age,star_mass,star_mdot,log_L,log_Teff,log_R,log_surf_z,v_wind_Km_per_s,log_center_T,log_center_Rho,phase,x
3.02221024e+02,4.99999967,-9.51860843e-10,3.21452977,3.63754768,1.85484668,-2.34509848,7.96573886e-05,5.72311737,-3.87746419,-1,-1.0
3.16109837e+02,4.99999966,-9.40706971e-10,3.21136623,3.63778820,1.85278386,-2.34509848,7.94670311e-05,5.72513438,-3.87141894,-1,-0.9999797640956278
3.30602423e+02,4.99999964,-9.29240285e-10,3.20812198,3.63804091,1.85065633,-2.34509848,7.92640562e-05,5.72721458,-3.86518187,-1,-0.9999586484981753
3.45730859e+02,4.99999963,-9.17442730e-10,3.20474220,3.63829282,1.84846262,-2.34509848,7.90444187e-05,5.72935974,-3.85874993,-1,-0.9999366064716755
3.61124951e+02,4.99999962,-9.05642292e-10,3.20816802,3.64035169,1.84605778,-2.34509848,8.72379858e-05,5.73155387,-3.85217473,-1,-0.9999141773862231
3.77144507e+02,4.99999960,-9.06235609e-10,3.21215760,3.64260679,1.84354236,-2.34509848,9.73789360e-05,5.73384432,-3.84531093,-1,-0.9998908370040536
3.94356831e+02,4.99999958,-9.07144426e-10,3.20860092,3.64295988,1.84105785,-2.34509848,9.85877602e-05,5.73627442,-3.83802500,-1,-0.999865758767167
4.12343413e+02,4.99999957,-8.94438116e-10,3.20471749,3.64326780,1.83850031,-2.34509848,9.83574028e-05,5.73877776,-3.83051874,-1,-0.9998395524417356
4.31194553e+02,4.99999955,-8.82008086e-10,3.20074309,3.64359260,1.83586351,-2.34509848,9.81740553e-05,5.74135856,-3.82278179,-1,-0.9998120864612845
4.50922743e+02,4.99999954,-8.68683839e-10,3.19659645,3.64391342,1.83314855,-2.34509848,9.79066250e-05,5.74401616,-3.81481438,-1,-0.9997833426250563
4.71534876e+02,4.99999952,-8.54918988e-10,3.19233421,3.64424381,1.83035664,-2.34509848,9.76027999e-05,5.74674922,-3.80661975,-1,-0.9997533108899976
4.93065902e+02,4.99999950,-8.40943062e-10,3.18806704,3.64461247,1.82748573,-2.34509848,9.72875798e-05,5.74955905,-3.79819596,-1,-0.9997219403342006
5.15546611e+02,4.99999948,-8.26862068e-10,3.18364774,3.64498221,1.82453660,-2.34509848,9.69714167e-05,5.75244551,-3.78954194,-1,-0.9996891860968483
5.39010710e+02,4.99999946,-8.12491547e-10,3.17907500,3.64535270,1.82150924,-2.34509848,9.66315763e-05,5.75540891,-3.78065692,-1,-0.9996549990670752
5.63656063e+02,4.99999944,-7.97710412e-10,3.17428270,3.64571324,1.81839202,-2.34509848,9.62508107e-05,5.75846084,-3.77150640,-1,-0.9996190909584034
5.89370722e+02,4.99999942,-7.83002692e-10,3.16935342,3.64607860,1.81519667,-2.34509848,9.58849900e-05,5.76158915,-3.76212621,-1,-0.9995816248782937
6.16181657e+02,4.99999940,-7.68374122e-10,3.16461495,3.64653207,1.81192049,-2.34509848,9.55388088e-05,5.76479528,-3.75251294,-1,-0.9995425615316428
6.44321331e+02,4.99999938,-7.53749283e-10,3.15950295,3.64693723,1.80855416,-2.34509848,9.51963532e-05,5.76809077,-3.74262931,-1,-0.9995015622214692
6.73658587e+02,4.99999936,-7.38905956e-10,3.15419863,3.64733316,1.80511015,-2.34509848,9.48287450e-05,5.77146294,-3.73251719,-1,-0.999458818042614
7.04334962e+02,4.99999934,-7.23840723e-10,3.14874933,3.64773463,1.80158256,-2.34509848,9.44334312e-05,5.77491705,-3.72215847,-1,-0.9994141227766481
7.36423994e+02,4.99999931,-7.08749035e-10,3.14344259,3.64821595,1.79796654,-2.34509848,9.40398139e-05,5.77845663,-3.71154471,-1,-0.9993673692792148
7.69924268e+02,4.99999929,-6.94088259e-10,3.13789755,3.64867903,1.79426786,-2.34509848,9.37017689e-05,5.78207775,-3.70068582,-1,-0.9993185596119591
8.04954081e+02,4.99999927,-6.78906069e-10,3.13205660,3.64910988,1.79048568,-2.34509848,9.32867818e-05,5.78578175,-3.68957716,-1,-0.9992675214169713
8.41585974e+02,4.99999924,-6.63855399e-10,3.12629673,3.64960476,1.78661600,-2.34509848,9.28896874e-05,5.78957041,-3.67821441,-1,-0.9992141490025165
8.79779521e+02,4.99999922,-6.48899790e-10,3.12028043,3.65007482,1.78266772,-2.34509848,9.24969077e-05,5.79343678,-3.66661855,-1,-0.999158501268997
9.19827225e+02,4.99999919,-6.33838378e-10,3.11406291,3.65053910,1.77863040,-2.34509848,9.20774239e-05,5.79739085,-3.65475797,-1,-0.999100152041567
9.61610919e+02,4.99999916,-6.18811752e-10,3.10785785,3.65104719,1.77451171,-2.34509848,9.16560915e-05,5.80142421,-3.64265932,-1,-0.9990392734887273
1.00523466e+03,4.99999914,-6.03860894e-10,3.10152275,3.65156421,1.77031011,-2.34509848,9.12338206e-05,5.80553879,-3.63031596,-1,-0.9989757140001495
1.05088057e+03,4.99999911,-5.89033604e-10,3.09505796,3.65209127,1.76602359,-2.34509848,9.08152542e-05,5.80973707,-3.61772216,-1,-0.9989092082253405
1.09858476e+03,4.99999908,-5.74207438e-10,3.08833373,3.65259401,1.76165600,-2.34509848,9.03742977e-05,5.81401574,-3.60488612,-1,-0.9988397035508235
1.14843719e+03,4.99999906,-5.59715645e-10,3.08171938,3.65316642,1.75720401,-2.34509848,8.99753806e-05,5.81837631,-3.59180433,-1,-0.9987670689055013
1.20050486e+03,4.99999903,-5.45026094e-10,3.07490928,3.65373027,1.75267125,-2.34509848,8.95215575e-05,5.82281715,-3.57848321,-1,-0.9986912066708378
1.25489642e+03,4.99999900,-5.30468556e-10,3.06778263,3.65425400,1.74806047,-2.34509848,8.90569070e-05,5.82733527,-3.56492799,-1,-0.9986119585445354
1.31174500e+03,4.99999897,-5.16219317e-10,3.06068776,3.65481837,1.74338429,-2.34509848,8.86153040e-05,5.83191744,-3.55118251,-1,-0.9985291305571059
1.37114842e+03,4.99999894,-5.02554393e-10,3.05347636,3.65539651,1.73862231,-2.34509848,8.82507485e-05,5.83658363,-3.53718180,-1,-0.9984425801854866
1.43319279e+03,4.99999891,-4.88635932e-10,3.04599936,3.65594883,1.73377917,-2.34509848,8.78083344e-05,5.84133027,-3.52294021,-1,-0.9983521819680038
1.49804625e+03,4.99999888,-4.74921316e-10,3.03861398,3.65656289,1.72885837,-2.34509848,8.73774522e-05,5.84615238,-3.50847087,-1,-0.9982576909258416
1.56577628e+03,4.99999885,-4.61473558e-10,3.03097996,3.65715185,1.72386342,-2.34509848,8.69548607e-05,5.85104786,-3.49378106,-1,-0.9981590087411073
1.63653499e+03,4.99999881,-4.48057056e-10,3.02321596,3.65774469,1.71879576,-2.34509848,8.64990000e-05,5.85601542,-3.47887561,-1,-0.9980559137905842
1.71043884e+03,4.99999878,-4.34751163e-10,3.01539016,3.65835872,1.71365479,-2.34509848,8.60254231e-05,5.86105490,-3.46375457,-1,-0.9979482363928587
1.78774303e+03,4.99999875,-4.21931574e-10,3.00756305,3.65901038,1.70843792,-2.34509848,8.56095812e-05,5.86616893,-3.44840923,-1,-0.9978356047232977
1.86849534e+03,4.99999872,-4.09188406e-10,2.99959359,3.65966078,1.70315239,-2.34509848,8.51625636e-05,5.87135108,-3.43286020,-1,-0.9977179491667723
1.95281641e+03,4.99999868,-3.96653691e-10,2.99135624,3.66027183,1.69781161,-2.34509848,8.46962518e-05,5.87658858,-3.41714395,-1,-0.9975950939516375
2.04088135e+03,4.99999865,-3.84345952e-10,2.98310091,3.66091249,1.69240262,-2.34509848,8.42327176e-05,5.88189315,-3.40122355,-1,-0.997466783943836
2.13280618e+03,4.99999861,-3.72262450e-10,2.97464031,3.66153873,1.68691984,-2.34509848,8.37644356e-05,5.88727123,-3.38508254,-1,-0.9973328501030313
2.22899247e+03,4.99999858,-3.60393135e-10,2.96607756,3.66217167,1.68137258,-2.34509848,8.32844291e-05,5.89271305,-3.36875063,-1,-0.9971927073445136
2.32944654e+03,4.99999854,-3.48838781e-10,2.95761072,3.66286175,1.67575901,-2.34509848,8.28314122e-05,5.89821948,-3.35222291,-1,-0.9970463464600868
2.43428633e+03,4.99999851,-3.37446042e-10,2.94898131,3.66354073,1.67008635,-2.34509848,8.23527032e-05,5.90378457,-3.33551851,-1,-0.9968935956119878
2.54388681e+03,4.99999847,-3.26416146e-10,2.94013311,3.66419462,1.66435447,-2.34509848,8.18906992e-05,5.90940866,-3.31863730,-1,-0.9967339084715225
2.65836589e+03,4.99999843,-3.15531847e-10,2.93126568,3.66487318,1.65856363,-2.34509848,8.14039148e-05,5.91509106,-3.30157860,-1,-0.9965671132446376
2.77784727e+03,4.99999840,-3.04978230e-10,2.92226040,3.66553415,1.65273906,-2.34509848,8.09228330e-05,5.92074355,-3.28453480,-1,-0.9963930297012896
2.90288814e+03,4.99999836,-2.94831151e-10,2.91339662,3.66626335,1.64684876,-2.34509848,8.04965563e-05,5.92650923,-3.26721584,-1,-0.9962108460195067
3.03329439e+03,4.99999832,-2.84766574e-10,2.90430766,3.66696238,1.64090622,-2.34509848,8.00162700e-05,5.93233362,-3.24972808,-1,-0.9960208450162146
3.16961327e+03,4.99999828,-2.74926968e-10,2.89499708,3.66763313,1.63490944,-2.34509848,7.95155034e-05,5.93821522,-3.23207403,-1,-0.9958222293519527
3.31188868e+03,4.99999825,-2.65303424e-10,2.88570051,3.66833367,1.62886008,-2.34509848,7.90094046e-05,5.94415405,-3.21425247,-1,-0.995614935064725
3.46064713e+03,4.99999821,-2.55982422e-10,2.87633230,3.66904568,1.62275195,-2.34509848,7.85175039e-05,5.95015285,-3.19625071,-1,-0.995398195033107
3.61583863e+03,4.99999817,-2.47023780e-10,2.86689497,3.66975675,1.61661113,-2.34509848,7.80537081e-05,5.95618459,-3.17814891,-1,-0.9951720820921828
3.77819781e+03,4.99999813,-2.38244474e-10,2.85744953,3.67049564,1.61041064,-2.34509848,7.75738011e-05,5.96227552,-3.15986810,-1,-0.994935525891129
3.94755156e+03,4.99999809,-2.29695375e-10,2.84772510,3.67118473,1.60417023,-2.34509848,7.70724324e-05,5.96840751,-3.14146697,-1,-0.9946887786500168
4.12450056e+03,4.99999805,-2.21369737e-10,2.83804069,3.67191282,1.59787185,-2.34509848,7.65745077e-05,5.97459728,-3.12289046,-1,-0.9944309651822457
4.30938229e+03,4.99999801,-2.13299164e-10,2.82824086,3.67262572,1.59154615,-2.34509848,7.60672277e-05,5.98081427,-3.10423518,-1,-0.9941615937817924
4.50241279e+03,4.99999797,-2.05513673e-10,2.81853719,3.67338517,1.58517540,-2.34509848,7.55890376e-05,5.98707589,-3.08544449,-1,-0.9938803496798726
4.70406823e+03,4.99999793,-1.97945551e-10,2.80860588,3.67410756,1.57876497,-2.34509848,7.50895191e-05,5.99337823,-3.06653350,-1,-0.9935865391000935
4.91474478e+03,4.99999789,-1.90605472e-10,2.79866002,3.67484653,1.57231411,-2.34509848,7.45905619e-05,5.99972023,-3.04749811,-1,-0.9932795848255085
5.13462001e+03,4.99999785,-1.83494647e-10,2.78854092,3.67555996,1.56582770,-2.34509930,7.40825814e-05,6.00602963,-3.02827587,-1,-0.9929592281378569
5.36438827e+03,4.99999781,-1.76613342e-10,2.77867419,3.67635417,1.55930591,-2.34510041,7.35973780e-05,6.01233869,-3.00890460,-1,-0.9926244573739964
5.60436912e+03,4.99999777,-1.69955449e-10,2.76841405,3.67706619,1.55275180,-2.34510046,7.30861600e-05,6.01861286,-2.98933615,-1,-0.9922748069372199
5.85493096e+03,4.99999773,-1.63512635e-10,2.75807758,3.67777287,1.54617020,-2.34510038,7.25708154e-05,6.02485947,-2.96959712,-1,-0.9919097400712782
6.11668266e+03,4.99999768,-1.57268941e-10,2.74798253,3.67855925,1.53954993,-2.34510035,7.20759453e-05,6.03108951,-2.94964154,-1,-0.9915283696567972
6.38999484e+03,4.99999764,-1.51178333e-10,2.73773290,3.67931676,1.53291008,-2.34510038,7.15440852e-05,6.03730282,-2.92954891,-1,-0.9911301557030032
6.67544533e+03,4.99999760,-1.45261649e-10,2.72729049,3.68003953,1.52624333,-2.34510031,7.09849574e-05,6.04349932,-2.90927567,-1,-0.9907142563155873
6.97374075e+03,4.99999756,-1.39653856e-10,2.71702527,3.68082120,1.51954739,-2.34510142,7.04989401e-05,6.04967990,-2.88880947,-1,-0.9902796419541021
7.28504947e+03,4.99999752,-1.34220653e-10,2.70645714,3.68154151,1.51282271,-2.34510082,6.99876901e-05,6.05583186,-2.86809507,-1,-0.9898260673046234
7.61023834e+03,4.99999747,-1.29065735e-10,2.69592031,3.68227251,1.50609228,-2.34510092,6.95244801e-05,6.06197607,-2.84729852,-1,-0.9893522693727037
7.94994158e+03,4.99999743,-1.24043551e-10,2.68548982,3.68303981,1.49934244,-2.34510120,6.90504839e-05,6.06811013,-2.82631974,-1,-0.9888573241041941
8.30479520e+03,4.99999739,-1.19315888e-10,2.67498666,3.68379460,1.49258129,-2.34510151,6.86399892e-05,6.07423261,-2.80518543,-1,-0.9883403048369288
8.67527572e+03,4.99999734,-1.14678024e-10,2.66436906,3.68452858,1.48580452,-2.34510223,6.81812445e-05,6.08034231,-2.78384632,-1,-0.9878005172845671
9.06216070e+03,4.99999730,-1.10193277e-10,2.65377435,3.68527128,1.47902177,-2.34510235,6.77191512e-05,6.08644949,-2.76238259,-1,-0.987236828547573
9.46614813e+03,4.99999726,-1.05848205e-10,2.64315874,3.68601280,1.47223092,-2.34510244,6.72459355e-05,6.09255429,-2.74076832,-1,-0.9866482216593495
9.88855389e+03,4.99999721,-1.01712546e-10,2.63262017,3.68677687,1.46543351,-2.34510658,6.68156432e-05,6.09866274,-2.71901829,-1,-0.9860327793918482
1.03296605e+04,4.99999717,-9.77129504e-11,2.62206897,3.68753987,1.45863190,-2.34510613,6.63789993e-05,6.10477662,-2.69713008,-1,-0.985390090115385
1.07901614e+04,4.99999713,-9.38603789e-11,2.61138030,3.68826965,1.45182800,-2.34510596,6.59333927e-05,6.11089366,-2.67507185,-1,-0.9847191434926817
1.12711216e+04,4.99999708,-9.01532536e-11,2.60071032,3.68900057,1.44503117,-2.34510593,6.54919090e-05,6.11702194,-2.65293239,-1,-0.9840183878115425
1.17738004e+04,4.99999704,-8.66638712e-11,2.59036468,3.68981535,1.43822880,-2.34510717,6.51510006e-05,6.12317319,-2.63064813,-1,-0.9832859882805871
1.22986208e+04,4.99999699,-8.32715852e-11,2.57984680,3.69058052,1.43143952,-2.34510631,6.47678746e-05,6.12934211,-2.60830950,-1,-0.9825213285917443
1.28469637e+04,4.99999695,-7.99982666e-11,2.56919363,3.69130398,1.42466600,-2.34510641,6.43606927e-05,6.13553011,-2.58591070,-1,-0.981722396783276
1.34199523e+04,4.99999691,-7.68474370e-11,2.55868081,3.69205614,1.41790527,-2.34510774,6.39687373e-05,6.14174213,-2.56343324,-1,-0.980887556360559
1.40185029e+04,4.99999686,-7.38700193e-11,2.54820500,3.69280742,1.41116482,-2.34510970,6.36255306e-05,6.14798537,-2.54094437,-1,-0.9800154722808384
1.46436085e+04,4.99999682,-7.09923904e-11,2.53767920,3.69353286,1.40445102,-2.34510911,6.32605836e-05,6.15428193,-2.51842395,-1,-0.9791046977499896
1.52967168e+04,4.99999677,-6.82561502e-11,2.52720626,3.69425123,1.39777782,-2.34511033,6.29196326e-05,6.16060658,-2.49600822,-1,-0.978153123479137
1.59791375e+04,4.99999673,-6.56309457e-11,2.51687024,3.69498921,1.39113386,-2.34511475,6.25981892e-05,6.16693939,-2.47366593,-1,-0.977158841244449
1.66923828e+04,4.99999668,-6.31196481e-11,2.50663957,3.69572787,1.38454119,-2.34511460,6.22880839e-05,6.17330478,-2.45153815,-1,-0.9761196477809965
1.74380791e+04,4.99999663,-6.07394961e-11,2.49641606,3.69644708,1.37799102,-2.34511556,6.20035719e-05,6.17969124,-2.42947107,-1,-0.9750331734352409
1.82175245e+04,4.99999659,-5.84540877e-11,2.48639007,3.69718209,1.37150801,-2.34511629,6.17275196e-05,6.18609493,-2.40764379,-1,-0.9738975268844705
1.90323230e+04,4.99999654,-5.63105009e-11,2.47662514,3.69795177,1.36508619,-2.34511669,6.15293777e-05,6.19248901,-2.38601780,-1,-0.9727103711117918
1.98831630e+04,4.99999649,-5.42441905e-11,2.46666960,3.69863997,1.35873202,-2.34511735,6.12779490e-05,6.19883894,-2.36449018,-1,-0.9714707031231714
2.07728454e+04,4.99999645,-5.22774190e-11,2.45682612,3.69931327,1.35246367,-2.34511861,6.10339701e-05,6.20504117,-2.34322992,-1,-0.9701744420267033
2.17034215e+04,4.99999640,-5.03932754e-11,2.44719112,3.69999797,1.34627677,-2.34512113,6.08003101e-05,6.21108258,-2.32204132,-1,-0.9688185990924909
2.26757126e+04,4.99999635,-4.86227488e-11,2.43770372,3.70067104,1.34018693,-2.34512513,6.06039608e-05,6.21690721,-2.30094013,-1,-0.9674019776921213
2.36918731e+04,4.99999630,-4.69252597e-11,2.42829166,3.70131879,1.33418540,-2.34512637,6.03931143e-05,6.22247404,-2.27968917,-1,-0.9659214388797118
2.47546291e+04,4.99999626,-4.53125754e-11,2.41906827,3.70197840,1.32825449,-2.34512316,6.02155363e-05,6.22778315,-2.25802006,-1,-0.9643730107464384
2.58644638e+04,4.99999621,-4.37614458e-11,2.40998721,3.70262726,1.32241623,-2.34513538,6.00262735e-05,6.23275009,-2.23629459,-1,-0.9627559892732471
2.70255132e+04,4.99999616,-4.23151151e-11,2.40106034,3.70327696,1.31665340,-2.34513784,5.98998599e-05,6.23763282,-2.21398492,-1,-0.9610643483367761
2.82379760e+04,4.99999611,-4.09259501e-11,2.39228950,3.70393348,1.31095494,-2.34513999,5.97854033e-05,6.24246467,-2.19118691,-1,-0.9592977984325015
2.95055161e+04,4.99999606,-3.96010739e-11,2.38371766,3.70460715,1.30532168,-2.34514801,5.97038678e-05,6.24731696,-2.16790433,-1,-0.9574510012834926
3.08297032e+04,4.99999600,-3.83306166e-11,2.37517123,3.70525456,1.29975365,-2.34513979,5.96131770e-05,6.25226654,-2.14416313,-1,-0.9555216698477185
3.22130527e+04,4.99999595,-3.71121915e-11,2.36684637,3.70593387,1.29423260,-2.34515531,5.95611723e-05,6.25738390,-2.11989055,-1,-0.9535061392047961
3.36594564e+04,4.99999590,-3.59575905e-11,2.35856884,3.70658708,1.28878741,-2.34515768,5.95198078e-05,6.26268393,-2.09524148,-1,-0.9513987390290731
3.51689522e+04,4.99999585,-3.48488518e-11,2.35042195,3.70724470,1.28339873,-2.34516021,5.94937988e-05,6.26819243,-2.07008743,-1,-0.949199414100512
3.67495251e+04,4.99999579,-3.37982018e-11,2.34266230,3.70795787,1.27809257,-2.34520255,5.95393097e-05,6.27391240,-2.04461853,-1,-0.9468965303294024
3.83993725e+04,4.99999574,-3.28035466e-11,2.33506873,3.70867803,1.27285546,-2.34519625,5.96281914e-05,6.27984800,-2.01876453,-1,-0.9444927140914627
4.01241002e+04,4.99999568,-3.18544654e-11,2.32755328,3.70937487,1.26770405,-2.34520141,5.97157886e-05,6.28601338,-1.99249418,-1,-0.9419797977749086
4.19269021e+04,4.99999563,-3.09524421e-11,2.32027887,3.71008866,1.26263926,-2.34520661,5.98424472e-05,6.29239295,-1.96574916,-1,-0.9393531278895553
4.38093202e+04,4.99999557,-3.00979526e-11,2.31329319,3.71083665,1.25765045,-2.34520922,6.00314654e-05,6.29892778,-1.93857793,-1,-0.9366104577520797
4.57792891e+04,4.99999551,-2.92918287e-11,2.30649404,3.71157680,1.25277057,-2.34521384,6.02466877e-05,6.30566293,-1.91110594,-1,-0.9337402267052228
4.78368270e+04,4.99999545,-2.85275652e-11,2.29993192,3.71232439,1.24799433,-2.34521245,6.04954558e-05,6.31260416,-1.88321413,-1,-0.9307424082317105
4.99861664e+04,4.99999539,-2.78071031e-11,2.29369407,3.71309652,1.24333116,-2.34520551,6.08017993e-05,6.31975153,-1.85489225,-1,-0.9276108356083493
5.22352523e+04,4.99999533,-2.71337231e-11,2.28789573,3.71391691,1.23879119,-2.34520747,6.11939533e-05,6.32712143,-1.82610658,-1,-0.9243339330251521
5.45848017e+04,4.99999527,-2.65122039e-11,2.28237680,3.71473835,1.23438884,-2.34519170,6.16492689e-05,6.33470460,-1.79685480,-1,-0.9209106558180835
5.70393422e+04,4.99999520,-2.59380782e-11,2.27734200,3.71560642,1.23013532,-2.34517978,6.22034462e-05,6.34251091,-1.76711917,-1,-0.9173344073052934
5.96056550e+04,4.99999514,-2.54042228e-11,2.27265601,3.71647137,1.22606242,-2.34515435,6.27931755e-05,6.35054159,-1.73688249,-1,-0.9135953073253361
6.22888807e+04,4.99999507,-2.49244047e-11,2.26848486,3.71736267,1.22219424,-2.34513531,6.34822270e-05,6.35880297,-1.70611456,-1,-0.9096858660596063
6.50920931e+04,4.99999500,-2.44949338e-11,2.26492243,3.71829068,1.21855700,-2.34512214,6.42748570e-05,6.36730510,-1.67480458,-1,-0.9056016050027874
6.80202650e+04,4.99999493,-2.41329727e-11,2.26219022,3.71929752,1.21517722,-2.34511791,6.52676056e-05,6.37605583,-1.64292341,-1,-0.9013352788197121
7.10802480e+04,4.99999486,-2.38254980e-11,2.26012875,3.72031773,1.21210606,-2.34511056,6.63575947e-05,6.38506561,-1.61044085,-1,-0.8968769047766222
7.42785888e+04,4.99999478,-2.35870583e-11,2.25894569,3.72137490,1.20940019,-2.34510868,6.76083402e-05,6.39434248,-1.57731763,-1,-0.8922169443769482
7.76173294e+04,4.99999470,-2.34253053e-11,2.25879377,3.72248186,1.20711032,-2.34510478,6.90580016e-05,6.40389458,-1.54352138,-1,-0.8873524224408295
8.11008080e+04,4.99999462,-2.33502220e-11,2.25984823,3.72364784,1.20530559,-2.34510193,7.07471581e-05,6.41373079,-1.50901843,-1,-0.8822770182409044
8.47321758e+04,4.99999454,-2.33789576e-11,2.26235078,3.72489528,1.20406197,-2.34510039,7.27570464e-05,6.42385715,-1.47377973,-1,-0.8769861405005926
8.85116977e+04,4.99999445,-2.35410458e-11,2.26661610,3.72627265,1.20343989,-2.34509992,7.52541203e-05,6.43428739,-1.43779371,-1,-0.8714794032624282
9.24430654e+04,4.99999436,-2.38237225e-11,2.27248447,3.72769144,1.20353651,-2.34509922,7.80875179e-05,6.44503892,-1.40099814,-1,-0.8657514277450733
9.65198756e+04,4.99999426,-2.42693103e-11,2.28034259,3.72922334,1.20440177,-2.34509882,8.15083213e-05,6.45610848,-1.36342578,-1,-0.8598115435122903
1.00739416e+05,4.99999415,-2.48990374e-11,2.29033868,3.73089279,1.20606091,-2.34509864,8.56668922e-05,6.46750769,-1.32507836,-1,-0.8536637023663985
1.05093202e+05,4.99999404,-2.57177347e-11,2.30237027,3.73273835,1.20838559,-2.34509856,9.07464922e-05,6.47922676,-1.28596530,-1,-0.847320266310849
