star_age,star_mass,star_mdot,log_L,log_Teff,log_R,log_surf_z,v_wind_Km_per_s,log_center_T,log_center_Rho,phase,x
1.30267539e+02,1.49999863e+01,-9.06887988e-08,4.06900498,3.63298559,2.29120847,-2.34509856,1.82903375e-03,5.71168984,-4.68789076,-1,-1.0
1.35511663e+02,1.49999858e+01,-8.96804436e-08,4.06644206,3.63321247,2.28947323,-2.34509856,1.82283709e-03,5.71338132,-4.68248951,-1,-0.999931015093867
1.40941717e+02,1.49999853e+01,-8.86432941e-08,4.06380796,3.63344409,2.28769296,-2.34509857,1.81623289e-03,5.71511338,-4.67694005,-1,-0.9998595843333647
1.46574112e+02,1.49999848e+01,-8.75858442e-08,4.06109829,3.63368089,2.28586452,-2.34509858,1.80939942e-03,5.71688860,-4.67122911,-1,-0.9997854918366238
1.52422871e+02,1.49999843e+01,-8.65171845e-08,4.05830711,3.63392434,2.28398202,-2.34509858,1.80255091e-03,5.71871217,-4.66533496,-1,-0.9997085531352105
1.58498227e+02,1.49999838e+01,-8.54406648e-08,4.05542736,3.63417701,2.28203680,-2.34509859,1.79581020e-03,5.72059198,-4.65922916,-1,-0.999628633617025
1.64839001e+02,1.49999833e+01,-8.43276302e-08,4.05247622,3.63443467,2.28004593,-2.34509860,1.78839650e-03,5.72251024,-4.65296990,-1,-0.9995452226032501
1.71438700e+02,1.49999827e+01,-8.31985572e-08,4.04943553,3.63469786,2.27799920,-2.34509860,1.78081074e-03,5.72447827,-4.64651724,-1,-0.9994584055073878
1.78296169e+02,1.49999822e+01,-8.20627804e-08,4.04630941,3.63496692,2.27589801,-2.34509862,1.77322942e-03,5.72649439,-4.63987723,-1,-0.9993681975231229
1.85423437e+02,1.49999816e+01,-8.09167419e-08,4.04310169,3.63524961,2.27372878,-2.34509864,1.76568401e-03,5.72857125,-4.63299936,-1,-0.9992744404125044
1.92831182e+02,1.49999810e+01,-7.97496695e-08,4.03979833,3.63553882,2.27149868,-2.34509866,1.75784911e-03,5.73070139,-4.62590871,-1,-0.9991769937095883
2.00531224e+02,1.49999804e+01,-7.85577631e-08,4.03642012,3.63583222,2.26922278,-2.34509868,1.74949436e-03,5.73287014,-4.61865374,-1,-0.9990757019257573
2.08535863e+02,1.49999798e+01,-7.73618836e-08,4.03295383,3.63612965,2.26689478,-2.34509870,1.74112713e-03,5.73508413,-4.61121158,-1,-0.9989704032581354
2.16856732e+02,1.49999791e+01,-7.61667333e-08,4.02939743,3.63644039,2.26449510,-2.34509871,1.73296815e-03,5.73736253,-4.60351138,-1,-0.998860944678035
2.25504174e+02,1.49999785e+01,-7.49521364e-08,4.02575425,3.63675370,2.26204687,-2.34509872,1.72438726e-03,5.73968202,-4.59563293,-1,-0.9987471901263384
2.34489348e+02,1.49999778e+01,-7.37309481e-08,4.02200418,3.63707584,2.25952756,-2.34509874,1.71581249e-03,5.74206517,-4.58749324,-1,-0.9986289928096884
2.43862872e+02,1.49999771e+01,-7.24920349e-08,4.01819981,3.63740887,2.25695931,-2.34509875,1.70675910e-03,5.74449005,-4.57916966,-1,-0.9985056868632088
2.53603455e+02,1.49999764e+01,-7.12600718e-08,4.01427618,3.63774365,2.25432795,-2.34509876,1.69793127e-03,5.74697111,-4.57060597,-1,-0.9983775523637316
2.63721201e+02,1.49999757e+01,-7.00172574e-08,4.01025804,3.63809148,2.25162321,-2.34509877,1.68897155e-03,5.74951661,-4.56176256,-1,-0.9982444563961137
2.74228371e+02,1.49999750e+01,-6.87591937e-08,4.00616044,3.63844900,2.24885936,-2.34509878,1.67966426e-03,5.75211362,-4.55269086,-1,-0.9981062376705125
2.85135468e+02,1.49999743e+01,-6.74901576e-08,4.00197981,3.63880637,2.24605432,-2.34509879,1.66990498e-03,5.75474741,-4.54345428,-1,-0.9979627580230577
2.96517125e+02,1.49999735e+01,-6.62373384e-08,3.99771478,3.63917263,2.24318928,-2.34509880,1.66046105e-03,5.75743503,-4.53397178,-1,-0.9978130356786235
3.08339657e+02,1.49999727e+01,-6.49883024e-08,3.99336218,3.63954608,2.24026609,-2.34509881,1.65104622e-03,5.76017429,-4.52424979,-1,-0.9976575137534601
3.20602200e+02,1.49999720e+01,-6.37280050e-08,3.98890328,3.63992849,2.23727181,-2.34509882,1.64137965e-03,5.76297815,-4.51423723,-1,-0.9974962036132331
3.33371018e+02,1.49999712e+01,-6.24427178e-08,3.98437173,3.64031722,2.23422857,-2.34509883,1.63085591e-03,5.76582551,-4.50401081,-1,-0.9973282335745459
3.46649053e+02,1.49999704e+01,-6.11892288e-08,3.97973945,3.64071440,2.23111809,-2.34509884,1.62106861e-03,5.76873581,-4.49349511,-1,-0.9971535649362553
3.60413860e+02,1.49999695e+01,-5.99415753e-08,3.97503157,3.64111747,2.22795801,-2.34509885,1.61126661e-03,5.77169102,-4.48275578,-1,-0.9969724929557234
3.74781854e+02,1.49999687e+01,-5.86918464e-08,3.97023770,3.64152694,2.22474212,-2.34509886,1.60113535e-03,5.77469882,-4.47175320,-1,-0.9967834862279247
3.89661864e+02,1.49999678e+01,-5.74321991e-08,3.96536987,3.64194358,2.22147494,-2.34509891,1.59054932e-03,5.77775596,-4.46051397,-1,-0.9965877440805022
4.05176896e+02,1.49999669e+01,-5.62043155e-08,3.96041041,3.64236748,2.21814739,-2.34509896,1.58058811e-03,5.78087179,-4.44898408,-1,-0.9963836484057677
4.21257034e+02,1.49999661e+01,-5.49698928e-08,3.95537128,3.64279693,2.21476892,-2.34509899,1.57020560e-03,5.78403861,-4.43720258,-1,-0.9961721189281014
4.38013422e+02,1.49999652e+01,-5.37430829e-08,3.95020464,3.64323657,2.21130632,-2.34509901,1.55990882e-03,5.78729400,-4.42503856,-1,-0.99595169358093
4.55374180e+02,1.49999642e+01,-5.25016172e-08,3.94498377,3.64368793,2.20779318,-2.34509903,1.54892450e-03,5.79060170,-4.41261451,-1,-0.9957233179244755
4.73487277e+02,1.49999633e+01,-5.12996007e-08,3.93971120,3.64413962,2.20425352,-2.34509904,1.53848923e-03,5.79393469,-4.39998338,-1,-0.995485045470139
4.92267628e+02,1.49999624e+01,-5.01068902e-08,3.93433650,3.64460006,2.20064527,-2.34509905,1.52813840e-03,5.79734855,-4.38701383,-1,-0.9952379954860271
5.11794801e+02,1.49999614e+01,-4.89223396e-08,3.92890228,3.64506598,2.19699633,-2.34509906,1.51758084e-03,5.80080909,-4.37378539,-1,-0.9949811212785428
5.32107955e+02,1.49999604e+01,-4.77531783e-08,3.92338498,3.64554082,2.19328801,-2.34509907,1.50714185e-03,5.80434288,-4.36022155,-1,-0.9947139077225786
5.53187087e+02,1.49999594e+01,-4.65802444e-08,3.91781472,3.64601478,2.18955496,-2.34509908,1.49599661e-03,5.80790983,-4.34644253,-1,-0.9944366179517061
5.75115378e+02,1.49999584e+01,-4.54455802e-08,3.91221010,3.64649683,2.18578854,-2.34509909,1.48551407e-03,5.81152438,-4.33240189,-1,-0.994148157744378
5.97920452e+02,1.49999574e+01,-4.43240396e-08,3.90651299,3.64699074,2.18195217,-2.34509910,1.47515746e-03,5.81523064,-4.31795570,-1,-0.9938481637150134
6.21596603e+02,1.49999564e+01,-4.32139318e-08,3.90076958,3.64749019,2.17808156,-2.34509911,1.46461227e-03,5.81899148,-4.30323420,-1,-0.9935367109243609
6.46191478e+02,1.49999553e+01,-4.21139093e-08,3.89500438,3.64798923,2.17420088,-2.34509913,1.45367585e-03,5.82278673,-4.28831812,-1,-0.9932131725901738
6.71779611e+02,1.49999543e+01,-4.10472133e-08,3.88916930,3.64849533,2.17027114,-2.34509914,1.44336694e-03,5.82665701,-4.27302889,-1,-0.9928765682396425
6.98382127e+02,1.49999532e+01,-4.00002653e-08,3.88330264,3.64900629,2.16631589,-2.34509916,1.43310903e-03,5.83058397,-4.25745098,-1,-0.9925266199796159
7.26013262e+02,1.49999521e+01,-3.89678205e-08,3.87736490,3.64952313,2.16231335,-2.34509918,1.42285726e-03,5.83459039,-4.24148201,-1,-0.9921631405397083
7.54719693e+02,1.49999510e+01,-3.79556825e-08,3.87138776,3.65004174,2.15828755,-2.34509920,1.41265485e-03,5.83865811,-4.22520562,-1,-0.9917855158977374
7.84550487e+02,1.49999499e+01,-3.69619070e-08,3.86544643,3.65056968,2.15426102,-2.34509922,1.40231927e-03,5.84276840,-4.20870754,-1,-0.991393100591775
8.15547588e+02,1.49999488e+01,-3.59945728e-08,3.85947179,3.65110103,2.15021099,-2.34509924,1.39230261e-03,5.84695049,-4.19186474,-1,-0.9909853428608588
8.47774534e+02,1.49999477e+01,-3.50516339e-08,3.85344155,3.65163215,2.14613363,-2.34509926,1.38254754e-03,5.85121512,-4.17463541,-1,-0.9905614068813194
8.81281921e+02,1.49999465e+01,-3.41278882e-08,3.84743899,3.65217496,2.14204672,-2.34509929,1.37277141e-03,5.85554772,-4.15707654,-1,-0.990120627077684
9.16103053e+02,1.49999454e+01,-3.32298316e-08,3.84144717,3.65271652,2.13796770,-2.34509931,1.36313555e-03,5.85992956,-4.13925009,-1,-0.9896625653456449
9.52296880e+02,1.49999442e+01,-3.23674729e-08,3.83549267,3.65325821,2.13390706,-2.34509934,1.35401960e-03,5.86435518,-4.12117520,-1,-0.9891864462153207
9.89908974e+02,1.49999430e+01,-3.15236745e-08,3.82955282,3.65380158,2.12985041,-2.34509953,1.34484292e-03,5.86885589,-4.10276755,-1,-0.9886916702004784
1.02899730e+03,1.49999418e+01,-3.07043876e-08,3.82364648,3.65434872,2.12580295,-2.34509959,1.33585645e-03,5.87343381,-4.08402465,-1,-0.9881774747886214
1.06961946e+03,1.49999406e+01,-2.99111402e-08,3.81777973,3.65490334,2.12176034,-2.34509960,1.32719457e-03,5.87810376,-4.06490129,-1,-0.9876431022424109
1.11183139e+03,1.49999393e+01,-2.91432213e-08,3.81191774,3.65546053,2.11771496,-2.34509961,1.31888449e-03,5.88288682,-4.04532007,-1,-0.9870878167402477
1.15570736e+03,1.49999381e+01,-2.83964378e-08,3.80614284,3.65601854,2.11371148,-2.34509962,1.31051743e-03,5.88773523,-4.02546989,-1,-0.9865106412821639
1.20131494e+03,1.49999368e+01,-2.76803228e-08,3.80046290,3.65658112,2.10974636,-2.34509964,1.30258691e-03,5.89266452,-4.00529173,-1,-0.985910687004718
1.24871850e+03,1.49999355e+01,-2.69935769e-08,3.79486267,3.65714113,2.10582622,-2.34509965,1.29503204e-03,5.89767882,-3.98476883,-1,-0.9852871071395252
1.29798815e+03,1.49999342e+01,-2.63323981e-08,3.78937293,3.65770694,2.10194973,-2.34509968,1.28777725e-03,5.90279226,-3.96384236,-1,-0.9846389794101923
1.34919820e+03,1.49999329e+01,-2.57003029e-08,3.78398609,3.65827232,2.09812556,-2.34509971,1.28095767e-03,5.90801166,-3.94250691,-1,-0.9839653262905634
1.40243488e+03,1.49999315e+01,-2.50981162e-08,3.77878130,3.65884270,2.09438240,-2.34509974,1.27454253e-03,5.91331097,-3.92086762,-1,-0.9832650134503946
1.45776751e+03,1.49999302e+01,-2.45241963e-08,3.77371335,3.65940911,2.09071561,-2.34509980,1.26849357e-03,5.91871727,-3.89882803,-1,-0.9825371290055099
1.51528784e+03,1.49999288e+01,-2.39792526e-08,3.76884982,3.65998360,2.08713487,-2.34510005,1.26292083e-03,5.92424111,-3.87637314,-1,-0.9817804660116917
1.57506981e+03,1.49999274e+01,-2.34658583e-08,3.76416968,3.66056002,2.08364195,-2.34510003,1.25800385e-03,5.92990801,-3.85343117,-1,-0.980994051810025
1.63723082e+03,1.49999259e+01,-2.29836273e-08,3.75969454,3.66113641,2.08025159,-2.34510002,1.25367545e-03,5.93572714,-3.82997005,-1,-0.9801763420380998
1.70188381e+03,1.49999245e+01,-2.25304980e-08,3.75553628,3.66171181,2.07702167,-2.34510003,1.24960621e-03,5.94164235,-3.80624079,-1,-0.9793258510034916
1.76909155e+03,1.49999230e+01,-2.21174342e-08,3.75164692,3.66228702,2.07392657,-2.34510004,1.24662498e-03,5.94772096,-3.78196492,-1,-0.9784417529853446
1.83896772e+03,1.49999215e+01,-2.17396572e-08,3.74812957,3.66286358,2.07101477,-2.34510007,1.24428516e-03,5.95393020,-3.75730921,-1,-0.9775225525567527
1.91160190e+03,1.49999199e+01,-2.14006404e-08,3.74500980,3.66344417,2.06829372,-2.34510010,1.24288299e-03,5.96030170,-3.73216470,-1,-0.9765670713192087
1.98708692e+03,1.49999183e+01,-2.11008576e-08,3.74230803,3.66402119,2.06578878,-2.34510014,1.24234681e-03,5.96684484,-3.70651760,-1,-0.9755740881214137
2.06550838e+03,1.49999167e+01,-2.08441546e-08,3.74009221,3.66459739,2.06352848,-2.34510017,1.24286970e-03,5.97357225,-3.68035994,-1,-0.9745424769205878
2.14708046e+03,1.49999150e+01,-2.06341860e-08,3.73845346,3.66517349,2.06155690,-2.34510020,1.24452034e-03,5.98050258,-3.65365712,-1,-0.9734694202419356
2.23192815e+03,1.49999132e+01,-2.04767191e-08,3.73749919,3.66575393,2.05991888,-2.34510024,1.24751922e-03,5.98765141,-3.62637973,-1,-0.972353273878833
2.31998964e+03,1.49999114e+01,-2.03748941e-08,3.73726258,3.66633184,2.05864477,-2.34510027,1.25195775e-03,5.99501983,-3.59853376,-1,-0.9711948509236188
2.41139380e+03,1.49999096e+01,-2.03359062e-08,3.73785963,3.66690793,2.05779111,-2.34510030,1.25803924e-03,6.00262331,-3.57008497,-1,-0.9699924561294122
2.50648260e+03,1.49999076e+01,-2.03756010e-08,3.73949465,3.66748026,2.05746397,-2.34510031,1.26621625e-03,6.01049824,-3.54096379,-1,-0.9687415909816186
2.60496803e+03,1.49999056e+01,-2.05009253e-08,3.74223307,3.66805157,2.05769054,-2.34510031,1.27680367e-03,6.01863679,-3.51121647,-1,-0.967446044166931
2.70697595e+03,1.49999035e+01,-2.07316919e-08,3.74625789,3.66861520,2.05857571,-2.34510030,1.29036943e-03,6.02705828,-3.48080981,-1,-0.9661041600341319
2.81269497e+03,1.49999013e+01,-2.11063249e-08,3.75192330,3.66917483,2.06028914,-2.34510027,1.30826849e-03,6.03577382,-3.44974590,-1,-0.9647134574742416
2.92174341e+03,1.49998990e+01,-2.16529132e-08,3.75939565,3.66973026,2.06291446,-2.34510023,1.33145622e-03,6.04482240,-3.41799606,-1,-0.9632789573752052
3.03393009e+03,1.49998965e+01,-2.24203736e-08,3.76900696,3.67028062,2.06661940,-2.34510017,1.36142540e-03,6.05417639,-3.38563344,-1,-0.9618031746535948
3.14889094e+03,1.49998938e+01,-2.34668402e-08,3.78112570,3.67081996,2.07160008,-2.34510009,1.39953335e-03,6.06383919,-3.35272219,-1,-0.9602908985429938
3.26585501e+03,1.49998910e+01,-2.48481657e-08,3.79604228,3.67136118,2.07797593,-2.34509999,1.44697531e-03,6.07378630,-3.31943006,-1,-0.9587522706635054
3.38400497e+03,1.49998879e+01,-2.66429367e-08,3.81397358,3.67190836,2.08584723,-2.34509988,1.50556730e-03,6.08398497,-3.28592452,-1,-0.9571980427504683
3.50244246e+03,1.49998846e+01,-2.89395185e-08,3.83499624,3.67246974,2.09523578,-2.34509976,1.57704889e-03,6.09439581,-3.25238257,-1,-0.9556400324649967
3.62025360e+03,1.49998810e+01,-3.18143809e-08,3.85898725,3.67309547,2.10597983,-2.34509963,1.66330692e-03,6.10497742,-3.21897278,-1,-0.9540902616292324
3.73728488e+03,1.49998770e+01,-3.53190663e-08,3.88541650,3.67380062,2.11778415,-2.34509950,1.76500859e-03,6.11575276,-3.18567207,-1,-0.9525507496219963
3.85411047e+03,1.49998726e+01,-3.94920030e-08,3.91356988,3.67461643,2.13022922,-2.34509929,1.88337249e-03,6.12678747,-3.15223875,-1,-0.9510139434061073
3.97158046e+03,1.49998676e+01,-4.43256699e-08,3.94278699,3.67562314,2.14282436,-2.34509923,2.01977986e-03,6.13817711,-3.11838246,-1,-0.9494686602980793
4.08857361e+03,1.49998620e+01,-4.98282300e-08,3.97317692,3.67702760,2.15521041,-2.34509917,2.17950388e-03,6.14982255,-3.08440580,-1,-0.9479296498797589
4.20177850e+03,1.49998560e+01,-5.64341168e-08,4.00463085,3.67968742,2.16561774,-2.34509909,2.41759408e-03,6.16140833,-3.05129443,-1,-0.9464404729055957
4.32746131e+03,1.49998484e+01,-6.20367125e-08,4.03025745,3.68354324,2.17071940,-2.34509903,2.69796121e-03,6.17455168,-3.01432814,-1,-0.9447871525702276
4.45795564e+03,1.49998400e+01,-6.68268301e-08,4.05227305,3.68839761,2.17201845,-2.34509898,3.04286431e-03,6.18853092,-2.97543522,-1,-0.9430705381068872
4.58859251e+03,1.49998309e+01,-7.08595523e-08,4.07155798,3.69432049,2.16981516,-2.34509895,3.49582068e-03,6.20271251,-2.93645690,-1,-0.9413520485718438
4.71570945e+03,1.49998217e+01,-7.38604093e-08,4.08793618,3.70142567,2.16379389,-2.34509893,4.11575067e-03,6.21651550,-2.89908139,-1,-0.9396798626788663
4.84036781e+03,1.49998124e+01,-7.59097621e-08,4.10182656,3.70929731,2.15499582,-2.34509891,4.94515914e-03,6.23007388,-2.86282634,-1,-0.9380400186814123
4.96436333e+03,1.49998028e+01,-7.73801003e-08,4.11417251,3.71757660,2.14461021,-2.34509889,6.03399489e-03,6.24361521,-2.82698794,-1,-0.9364088941488644
5.08922394e+03,1.49997931e+01,-7.83214399e-08,4.12505025,3.72611800,2.13296627,-2.34509890,7.44161141e-03,6.25718993,-2.79153316,-1,-0.9347663896122497
5.21517398e+03,1.49997832e+01,-7.87901604e-08,4.13466676,3.73486290,2.12028472,-2.34509888,9.24928308e-03,6.27088062,-2.75630070,-1,-0.933109553944966
5.34318681e+03,1.49997731e+01,-7.88000646e-08,4.14296737,3.74375297,2.10665490,-2.34509893,1.15463710e-02,6.28461683,-2.72161310,-1,-0.9314255828829964
5.47349975e+03,1.49997629e+01,-7.83679250e-08,4.15003302,3.75275595,2.09218177,-2.34509893,1.44338031e-02,6.29843873,-2.68732671,-1,-0.9297113545516628
5.60704880e+03,1.49997525e+01,-7.75069238e-08,4.15578535,3.76182625,2.07691732,-2.34509900,1.80242139e-02,6.31227997,-2.65368188,-1,-0.9279545561467408
5.74401412e+03,1.49997419e+01,-7.62834603e-08,4.16039145,3.77093991,2.06099305,-2.34509898,2.25080161e-02,6.32611293,-2.62052726,-1,-0.9261528177165115
5.88554152e+03,1.49997313e+01,-7.46720776e-08,4.16365418,3.78004871,2.04440682,-2.34509917,2.81092449e-02,6.33978658,-2.58790208,-1,-0.9242910664680171
6.03172388e+03,1.49997205e+01,-7.27585014e-08,4.16576186,3.78913398,2.02729012,-2.34509966,3.51400556e-02,6.35316422,-2.55539869,-1,-0.9223680805922229
6.18332697e+03,1.49997096e+01,-7.05569659e-08,4.16664244,3.79815708,2.00968422,-2.34510018,4.39728191e-02,6.36605703,-2.52267675,-1,-0.9203737866103995
6.34068979e+03,1.49996988e+01,-6.81210934e-08,4.16637209,3.80709388,1.99167544,-2.34510023,5.48159958e-02,6.37839873,-2.48930228,-1,-0.918303725077427
6.50413396e+03,1.49996879e+01,-6.55301423e-08,4.16509628,3.81592488,1.97337554,-2.34510107,6.84489351e-02,6.39031800,-2.45501387,-1,-0.9161536651769651
6.67391233e+03,1.49996770e+01,-6.28502619e-08,4.16299610,3.82464193,1.95489135,-2.34510110,8.57594484e-02,6.40206647,-2.41980910,-1,-0.9139202807417613
6.85025900e+03,1.49996662e+01,-6.01544606e-08,4.16026360,3.83324295,1.93632306,-2.34510012,1.07843142e-01,6.41386366,-2.38380653,-1,-0.9116004922552892
7.03350260e+03,1.49996554e+01,-5.74953943e-08,4.15709066,3.84172632,1.91776983,-2.34509854,1.36197158e-01,6.42580930,-2.34708542,-1,-0.9091899766867235
7.22391483e+03,1.49996447e+01,-5.49213745e-08,4.15369692,3.85009441,1.89933680,-2.34509842,1.72884053e-01,6.43792101,-2.30967140,-1,-0.9066851599026159
7.42167921e+03,1.49996342e+01,-5.24840900e-08,4.15034501,3.85835686,1.88113593,-2.34509839,2.20880409e-01,6.45019125,-2.27158142,-1,-0.9040836277514371
7.62675854e+03,1.49996237e+01,-5.02363443e-08,4.14734470,3.86653429,1.86328092,-2.34509868,2.83808638e-01,6.46260569,-2.23286079,-1,-0.9013858695882271
7.83887355e+03,1.49996133e+01,-4.82174898e-08,4.14502081,3.87465648,1.84587461,-2.34509880,3.65597991e-01,6.47514109,-2.19358732,-1,-0.8985955591275536
8.05744643e+03,1.49996030e+01,-4.64550080e-08,4.14364969,3.88275758,1.82898684,-2.34509885,4.70072358e-01,6.48776847,-2.15387694,-1,-0.8957202972897256
8.28227552e+03,1.49995927e+01,-4.49413005e-08,4.14331488,3.89085304,1.81262852,-2.34509890,6.01051335e-01,6.50044268,-2.11390123,-1,-0.8927627368526274
8.51177885e+03,1.49995826e+01,-4.36911073e-08,4.14425054,3.89899775,1.79680692,-2.34509904,7.59593529e-01,6.51317808,-2.07365162,-1,-0.88974368816551
8.74678854e+03,1.49995725e+01,-4.26265664e-08,4.14606040,3.90716366,1.78138003,-2.34509916,9.40148236e-01,6.52591268,-2.03337230,-1,-0.8866522049349427
8.98570217e+03,1.49995624e+01,-4.17416148e-08,4.14881668,3.91539756,1.76629038,-2.34509923,1.13627706,6.53869237,-1.99291519,-1,-0.8835093665239011
9.22854195e+03,1.49995524e+01,-4.09837866e-08,4.15224692,3.92369785,1.75140492,-2.34509925,1.33903330,6.55152349,-1.95227681,-1,-0.8803148807663791
9.47612328e+03,1.49995423e+01,-4.02901265e-08,4.15598982,3.93204216,1.73658774,-2.34509939,1.53892999,6.56441148,-1.91146445,-1,-0.8770580213156197
9.72894764e+03,1.49995322e+01,-3.96264916e-08,4.15985429,3.94042100,1.72176229,-2.34509942,1.72752119,6.57737555,-1.87042281,-1,-0.8737321913499748
9.98738368e+03,1.49995221e+01,-3.89731432e-08,4.16372734,3.94882507,1.70689069,-2.34509960,1.89757856,6.59042907,-1.82911515,-1,-0.8703325413873106
1.02518253e+04,1.49995119e+01,-3.83220997e-08,4.16756074,3.95724647,1.69196459,-2.34509975,2.04443982,6.60358231,-1.78751285,-1,-0.8668538897891827
1.05226457e+04,1.49995016e+01,-3.76741215e-08,4.17135907,3.96567867,1.67699934,-2.34509988,2.16872748,6.61684412,-1.74559760,-1,-0.8632913272195476
1.08000175e+04,1.49994913e+01,-3.70361895e-08,4.17516952,3.97411749,1.66202694,-2.34510012,2.27393109,6.63021543,-1.70337949,-1,-0.8596425829131649
1.10840989e+04,1.49994809e+01,-3.64193745e-08,4.17906893,3.98256147,1.64708868,-2.34510061,2.36342783,6.64369630,-1.66086992,-1,-0.8559055757956452
1.13749143e+04,1.49994704e+01,-3.58361720e-08,4.18315169,3.99101180,1.63222939,-2.34510072,2.43859436,6.65728367,-1.61809564,-1,-0.8520799848921776
1.16723172e+04,1.49994598e+01,-3.52992653e-08,4.18751502,3.99947169,1.61749129,-2.34510019,2.50024987,6.67097147,-1.57509379,-1,-0.8481677373670986
