star_age,star_mass,star_mdot,log_L,log_Teff,log_R,log_surf_z,v_wind_Km_per_s,log_center_T,log_center_Rho,phase,x
1.03415320e+02,5.49994189e+01,-1.02762768e-05,5.43271402,3.82473170,2.58957075,-2.34509851,2.44392996,6.23937117,-3.67233734,-1,-1.0
1.06688013e+02,5.49993828e+01,-1.05066790e-05,5.43872790,3.82512616,2.59178878,-2.34509851,2.51215826,6.24161887,-3.66563940,-1,-0.9998091650699541
1.09960705e+02,5.49993467e+01,-1.07370811e-05,5.44474179,3.82552062,2.59400680,-2.34509851,2.58038656,6.24386657,-3.65894146,-1,-0.9996183301982194
1.13233397e+02,5.49993107e+01,-1.09674833e-05,5.45075567,3.82591508,2.59622482,-2.34509851,2.64861486,6.24611426,-3.65224353,-1,-0.9994274953264847
1.16773856e+02,5.49992693e+01,-1.12070733e-05,5.45668556,3.82637109,2.59827776,-2.34509851,2.72818616,6.24857238,-3.64495135,-1,-0.9992210466172426
1.20395315e+02,5.49992263e+01,-1.14494426e-05,5.46259003,3.82684571,2.60028075,-2.34509851,2.81118877,6.25109414,-3.63747942,-1,-0.9990098746940194
1.24016774e+02,5.49991833e+01,-1.16918119e-05,5.46849451,3.82732033,2.60228375,-2.34509851,2.89419137,6.25361590,-3.63000749,-1,-0.9987987027707962
1.27747589e+02,5.49991380e+01,-1.19374617e-05,5.47437107,3.82782715,2.60420838,-2.34509850,2.98357137,6.25622233,-3.62229749,-1,-0.9985811541588306
1.31785491e+02,5.49990862e+01,-1.21923240e-05,5.48016924,3.82842441,2.60591294,-2.34509850,3.09086012,6.25906653,-3.61391897,-1,-0.9983456989096818
1.35823394e+02,5.49990344e+01,-1.24471863e-05,5.48596741,3.82902167,2.60761751,-2.34509850,3.19814887,6.26191072,-3.60554044,-1,-0.9981102436022218
1.39861296e+02,5.49989826e+01,-1.27020486e-05,5.49176558,3.82961894,2.60932207,-2.34509850,3.30543761,6.26475492,-3.59716192,-1,-0.9978747883530731
1.44112986e+02,5.49989257e+01,-1.29989522e-05,5.49754618,3.83028238,2.61088549,-2.34509850,3.43867891,6.26776045,-3.58832880,-1,-0.9976268668512007
1.48587010e+02,5.49988634e+01,-1.33395775e-05,5.50330852,3.83101464,2.61230213,-2.34509850,3.59891004,6.27093376,-3.57902292,-1,-0.9973659807683741
1.53061034e+02,5.49988012e+01,-1.36802029e-05,5.50907086,3.83174691,2.61371877,-2.34509850,3.75914117,6.27410708,-3.56971703,-1,-0.9971050946855476
1.57674146e+02,5.49987355e+01,-1.40156376e-05,5.51481688,3.83253899,2.61500762,-2.34509850,3.93358588,6.27738370,-3.56012152,-1,-0.9968360982028912
1.62561729e+02,5.49986630e+01,-1.43408294e-05,5.52053072,3.83344910,2.61604431,-2.34509850,4.13607900,6.28086418,-3.54995447,-1,-0.9965510969638814
1.67449312e+02,5.49985904e+01,-1.46660212e-05,5.52624455,3.83435921,2.61708100,-2.34509849,4.33857212,6.28434467,-3.53978741,-1,-0.9962660957248716
1.72523991e+02,5.49985130e+01,-1.49919674e-05,5.53192350,3.83536489,2.61790913,-2.34509849,4.57139279,6.28796076,-3.52924009,-1,-0.9959701846779232
1.77819035e+02,5.49984298e+01,-1.53188023e-05,5.53756136,3.83648311,2.61849162,-2.34509849,4.83993351,6.29173658,-3.51824488,-1,-0.9956614238649383
1.83114079e+02,5.49983466e+01,-1.56456371e-05,5.54319922,3.83760133,2.61907410,-2.34509849,5.10847423,6.29551240,-3.50724966,-1,-0.9953526630519532
1.88729918e+02,5.49982548e+01,-1.59697229e-05,5.54875265,3.83891082,2.61923184,-2.34509849,5.45010064,6.29951396,-3.49562217,-1,-0.995025196270708
1.94424749e+02,5.49981608e+01,-1.62931318e-05,5.55428529,3.84026741,2.61928498,-2.34509849,5.80972382,6.30357110,-3.48383898,-1,-0.9946931233645391
2.00250003e+02,5.49980631e+01,-1.66127022e-05,5.55977052,3.84171386,2.61913470,-2.34509849,6.21126892,6.30771687,-3.47180740,-1,-0.9943534453258138
2.06334183e+02,5.49979583e+01,-1.69246519e-05,5.56516161,3.84333871,2.61858054,-2.34509849,6.69604144,6.31203857,-3.45928269,-1,-0.9939986689796405
2.12429521e+02,5.49978532e+01,-1.72347912e-05,5.57054496,3.84497259,2.61800444,-2.34509849,7.18556390,6.31636743,-3.44673798,-1,-0.9936432419961635
2.18926717e+02,5.49977371e+01,-1.74797312e-05,5.57564970,3.84693203,2.61663795,-2.34509849,7.84615069,6.32095384,-3.43347241,-1,-0.993264382156834
2.25423913e+02,5.49976211e+01,-1.77246713e-05,5.58075444,3.84889146,2.61527145,-2.34509849,8.50673748,6.32554025,-3.42020684,-1,-0.9928855223175045
2.32124506e+02,5.49974995e+01,-1.79565674e-05,5.58568917,3.85103757,2.61344660,-2.34509849,9.31553013,6.33024676,-3.40660476,-1,-0.9924948021380005
2.39090876e+02,5.49973707e+01,-1.81714192e-05,5.59040176,3.85342761,2.61102281,-2.34509849,1.03179812e+01,6.33511019,-3.39256295,-1,-0.9920885841604437
2.46057245e+02,5.49972419e+01,-1.83862710e-05,5.59511435,3.85581765,2.60859903,-2.34509848,1.13204323e+01,6.33997362,-3.37852114,-1,-0.9916823662411982
2.53255187e+02,5.49971067e+01,-1.86127645e-05,5.59968812,3.85844237,2.60563647,-2.34509848,1.26092162e+01,6.34496706,-3.36411515,-1,-0.9912626450030483
2.60657720e+02,5.49969658e+01,-1.88495432e-05,5.60413925,3.86127444,2.60219791,-2.34509848,1.41509709e+01,6.35007537,-3.34938741,-1,-0.990830993801051
2.68143127e+02,5.49968228e+01,-1.90683231e-05,5.60849805,3.86420011,2.59852596,-2.34509848,1.58272304e+01,6.35522526,-3.33454400,-1,-0.990394510109727
2.75893955e+02,5.49966729e+01,-1.92294580e-05,5.61256114,3.86742559,2.59410654,-2.34509848,1.79342677e+01,6.36050830,-3.31933012,-1,-0.9899425493791671
2.83724966e+02,5.49965210e+01,-1.93716059e-05,5.61650422,3.87074270,2.58944386,-2.34509848,2.01944949e+01,6.36582709,-3.30401744,-1,-0.9894859130749448
2.91771001e+02,5.49963641e+01,-1.94628369e-05,5.62012550,3.87430553,2.58412884,-2.34509848,2.28655254e+01,6.37124175,-3.28843978,-1,-0.9890167384452524
2.99951994e+02,5.49962044e+01,-1.95156739e-05,5.62351111,3.87804168,2.57834935,-2.34509848,2.58095388e+01,6.37670752,-3.27272580,-1,-0.9885396942413318
3.08246411e+02,5.49960423e+01,-1.95361109e-05,5.62669722,3.88192409,2.57217758,-2.34509848,2.89827687e+01,6.38221586,-3.25689833,-1,-0.9880560361383668
3.16739727e+02,5.49958769e+01,-1.94944674e-05,5.62947623,3.88608685,2.56524158,-2.34509848,3.25496168e+01,6.38778346,-3.24091550,-1,-0.9875607799793814
3.25342619e+02,5.49957100e+01,-1.94159079e-05,5.63199819,3.89041532,2.55784561,-2.34509848,3.62858429e+01,6.39337494,-3.22487602,-1,-0.9870591343031714
3.34061793e+02,5.49955419e+01,-1.92973007e-05,5.63423297,3.89492294,2.54994775,-2.34509848,4.01551582e+01,6.39898749,-3.20878909,-1,-0.986550708074268
3.42899384e+02,5.49953728e+01,-1.91368005e-05,5.63615393,3.89961681,2.54152049,-2.34509848,4.40793032e+01,6.40461461,-3.19267547,-1,-0.9860353767980806
3.51854462e+02,5.49952032e+01,-1.89346175e-05,5.63774608,3.90449402,2.53256216,-2.34509848,4.79465622e+01,6.41024830,-3.17656422,-1,-0.9855131947041029
3.60931282e+02,5.49950336e+01,-1.86913822e-05,5.63899136,3.90954931,2.52307422,-2.34509848,5.16591678e+01,6.41588207,-3.16047288,-1,-0.9849839136778229
3.70126219e+02,5.49948644e+01,-1.84125265e-05,5.63990821,3.91475689,2.51311747,-2.34509848,5.51671124e+01,6.42151158,-3.14441504,-1,-0.9844477450976439
3.79441567e+02,5.49946957e+01,-1.81023808e-05,5.64050927,3.92009699,2.50273782,-2.34509848,5.84443357e+01,6.42713422,-3.12839667,-1,-0.983904555197481
3.88887249e+02,5.49945278e+01,-1.77642252e-05,5.64079590,3.92555540,2.49196429,-2.34509849,6.14727145e+01,6.43274922,-3.11242274,-1,-0.983353765354466
3.98478944e+02,5.49943609e+01,-1.74013007e-05,5.64076855,3.93111862,2.48082418,-2.34509849,6.42319697e+01,6.43835586,-3.09649494,-1,-0.9827944613059815
4.08223158e+02,5.49941949e+01,-1.70188071e-05,5.64045300,3.93676516,2.46937333,-2.34509849,6.67069534e+01,6.44395491,-3.08060974,-1,-0.9822262636788155
4.18132094e+02,5.49940301e+01,-1.66206484e-05,5.63986544,3.94247881,2.45765225,-2.34509849,6.88758052e+01,6.44954652,-3.06475979,-1,-0.9816484609003728
4.28226333e+02,5.49938662e+01,-1.62414084e-05,5.63900997,3.94824638,2.44568937,-2.34509849,7.08476110e+01,6.45512775,-3.04894756,-1,-0.9810598528661233
4.38520280e+02,5.49937029e+01,-1.58905277e-05,5.63791404,3.95404995,2.43353427,-2.34509849,7.26563858e+01,6.46069676,-3.03316997,-1,-0.980459599602025
4.49005441e+02,5.49935405e+01,-1.54970490e-05,5.63663289,3.95987508,2.42124344,-2.34509850,7.40050669e+01,6.46626063,-3.01739777,-1,-0.9798481964041218
4.59733011e+02,5.49933795e+01,-1.49967453e-05,5.63515320,3.96571830,2.40881716,-2.34509850,7.45276144e+01,6.47182842,-3.00159035,-1,-0.9792226580262438
4.70709890e+02,5.49932196e+01,-1.45386388e-05,5.63346061,3.97156626,2.39627493,-2.34509850,7.49674708e+01,6.47739695,-2.98574142,-1,-0.9785825821205331
4.81961489e+02,5.49930606e+01,-1.41364285e-05,5.63157707,3.97740601,2.38365368,-2.34509850,7.54460554e+01,6.48296562,-2.96982950,-1,-0.9779264869389593
4.93504253e+02,5.49929020e+01,-1.37764783e-05,5.62953834,3.98322578,2.37099477,-2.34509851,7.59399170e+01,6.48852844,-2.95384826,-1,-0.9772534135524618
5.05317094e+02,5.49927440e+01,-1.33703611e-05,5.62737304,3.98902416,2.35831536,-2.34509852,7.60062324e+01,6.49409016,-2.93778340,-1,-0.9765645916293915
5.17455273e+02,5.49925873e+01,-1.28929711e-05,5.62505920,3.99479570,2.34561535,-2.34509852,7.54857624e+01,6.49966520,-2.92156850,-1,-0.9758567988298987
5.29926154e+02,5.49924315e+01,-1.24630747e-05,5.62260267,4.00053177,2.33291494,-2.34509852,7.50801071e+01,6.50525438,-2.90518713,-1,-0.9751296057496903
5.42761436e+02,5.49922818e+01,-1.16672756e-05,5.62003577,4.00622301,2.32024902,-2.34509853,7.22343305e+01,6.51085915,-2.88861845,-1,-0.9743811639793838
5.55978330e+02,5.49921476e+01,-1.03199332e-05,5.61738931,4.01186424,2.30764332,-2.34509854,6.55838795e+01,6.51648478,-2.87184626,-1,-0.9736104699234749
5.69537219e+02,5.49920313e+01,-8.56643765e-06,5.61466562,4.01746272,2.29508451,-2.34509854,5.58718010e+01,6.52214252,-2.85486857,-1,-0.9728198337000907
5.83495710e+02,5.49919364e+01,-6.72661725e-06,5.61184828,4.02301227,2.28257674,-2.34509854,4.49995944e+01,6.52784848,-2.83763688,-1,-0.9720058961711101
5.97883908e+02,5.49918610e+01,-5.28887702e-06,5.60896891,4.02850803,2.27014556,-2.34509855,3.62394334e+01,6.53360617,-2.82015110,-1,-0.9711669018753368
6.12702567e+02,5.49918032e+01,-4.05539417e-06,5.60605498,4.03395013,2.25780437,-2.34509857,2.84193181e+01,6.53941892,-2.80242453,-1,-0.9703028068460628
6.27901008e+02,5.49917619e+01,-2.73511848e-06,5.60310415,4.03934869,2.24553184,-2.34509858,1.96027727e+01,6.54528825,-2.78447830,-1,-0.9694165662408357
6.43557311e+02,5.49917399e+01,-1.39058776e-06,5.60009949,4.04469964,2.23332762,-2.34509857,1.01948682e+01,6.55123490,-2.76625767,-1,-0.9685036271146228
6.59697925e+02,5.49917267e+01,-8.20632417e-07,5.59706854,4.04999641,2.22121860,-2.34509858,6.17389188,6.55726058,-2.74776551,-1,-0.967562447192281
6.76307275e+02,5.49917131e+01,-8.18962126e-07,5.59404446,4.05523846,2.20922245,-2.34509860,6.30411162,6.56335901,-2.72902874,-1,-0.9665939346720542
6.93351069e+02,5.49916992e+01,-8.17182394e-07,5.59103095,4.06043040,2.19733183,-2.34509861,6.43642880,6.56952562,-2.71006731,-1,-0.9656000891644837
7.10936748e+02,5.49916848e+01,-8.14717031e-07,5.58800556,4.06557066,2.18553862,-2.34509860,6.56648532,6.57578712,-2.69080082,-1,-0.9645746456469354
7.29063118e+02,5.49916701e+01,-8.12327899e-07,5.58500145,4.07065657,2.17386473,-2.34509860,6.69842771,6.58214074,-2.67124069,-1,-0.9635176737430823
7.47754394e+02,5.49916550e+01,-8.10400192e-07,5.58207185,4.07568095,2.16235117,-2.34509861,6.83362552,6.58858073,-2.65140443,-1,-0.9624277614451889
7.67068764e+02,5.49916393e+01,-8.08600351e-07,5.57923734,4.08064018,2.15101546,-2.34509863,6.96853561,6.59511395,-2.63126947,-1,-0.9613015157362783
7.86862828e+02,5.49916234e+01,-8.06638866e-07,5.57645894,4.08555915,2.13978831,-2.34509863,7.10175414,6.60172581,-2.61088599,-1,-0.9601472984544359
8.07245676e+02,5.49916070e+01,-8.04774596e-07,5.57376563,4.09042994,2.12870010,-2.34509863,7.23560279,6.60843342,-2.59019913,-1,-0.9589587484217206
8.28279043e+02,5.49915901e+01,-8.03425066e-07,5.57121562,4.09524412,2.11779673,-2.34509864,7.37352665,6.61523988,-2.56920016,-1,-0.9577322657910321
8.49923917e+02,5.49915727e+01,-8.02559081e-07,5.56883304,4.10000500,2.10708368,-2.34509866,7.51535821,6.62213437,-2.54792501,-1,-0.9564701254021709
8.72116432e+02,5.49915549e+01,-8.02043602e-07,5.56660855,4.10472041,2.09654060,-2.34509869,7.66018798,6.62910671,-2.52640535,-1,-0.9551760513635829
8.95092393e+02,5.49915365e+01,-8.02314573e-07,5.56458127,4.10939111,2.08618556,-2.34509868,7.81316941,6.63620293,-2.50449979,-1,-0.9538362935830109
9.18699742e+02,5.49915175e+01,-8.03239641e-07,5.56275111,4.11402617,2.07600037,-2.34509869,7.97208418,6.64339613,-2.48229839,-1,-0.9524597187576346
9.43051658e+02,5.49914979e+01,-8.04700484e-07,5.56120840,4.11861565,2.06605005,-2.34509873,8.13430543,6.65069433,-2.45977538,-1,-0.951039727274674
9.68100439e+02,5.49914777e+01,-8.06884632e-07,5.55995757,4.12316728,2.05632138,-2.34509878,8.30137606,6.65808881,-2.43696045,-1,-0.9495791006989851
9.93703370e+02,5.49914569e+01,-8.09983270e-07,5.55893593,4.12769386,2.04675739,-2.34509883,8.47607684,6.66556194,-2.41390839,-1,-0.9480861609254236
1.02007411e+03,5.49914354e+01,-8.15451327e-07,5.55820579,4.13220065,2.03737874,-2.34509883,8.67416394,6.67315293,-2.39050278,-1,-0.9465484492234216
1.04724479e+03,5.49914131e+01,-8.21942748e-07,5.55782129,4.13668842,2.02821096,-2.34509885,8.88192869,6.68086313,-2.36674832,-1,-0.944964091993122
1.07521040e+03,5.49913899e+01,-8.28461314e-07,5.55784615,4.14115687,2.01928649,-2.34509893,9.08785074,6.68868604,-2.34266729,-1,-0.9433333813740563
1.10390083e+03,5.49913658e+01,-8.36061536e-07,5.55824393,4.14561305,2.01057302,-2.34509903,9.30431001,6.69660742,-2.31830657,-1,-0.9416604055703258
1.13313948e+03,5.49913411e+01,-8.45139231e-07,5.55891433,4.15006333,2.00200765,-2.34509911,9.53675849,6.70460398,-2.29373260,-1,-0.9399554623546352
1.16325792e+03,5.49913152e+01,-8.59489196e-07,5.55996930,4.15451924,1.99362333,-2.34509913,9.83072295,6.71272885,-2.26879117,-1,-0.9381992174546422
1.19416405e+03,5.49912881e+01,-8.74809330e-07,5.56139836,4.15898370,1.98540894,-2.34509896,1.01382543e+01,6.72096737,-2.24352947,-1,-0.936397041339577
1.22579946e+03,5.49912598e+01,-8.91492249e-07,5.56318472,4.16346111,1.97734729,-2.34509916,1.04637578e+01,6.72931415,-2.21796750,-1,-0.9345523399715218
1.25824215e+03,5.49912303e+01,-9.07880157e-07,5.56538028,4.16795265,1.96946199,-2.34509941,1.07872280e+01,6.73776945,-2.19211169,-1,-0.9326605650703463
1.29140594e+03,5.49911995e+01,-9.24883741e-07,5.56792425,4.17246001,1.96171926,-2.34509964,1.11195098e+01,6.74631517,-2.16601590,-1,-0.9307267419024817
1.32520565e+03,5.49911675e+01,-9.43331117e-07,5.57076253,4.17698350,1.95409142,-2.34509990,1.14704689e+01,6.75493876,-2.13971527,-1,-0.9287558374230749
1.35994875e+03,5.49911335e+01,-9.71995758e-07,5.57394076,4.18154773,1.94655206,-2.34509995,1.19522031e+01,6.76369707,-2.11305047,-1,-0.926729922661721
1.39538664e+03,5.49910979e+01,-1.00191561e-06,5.57737163,4.18614530,1.93907237,-2.34510005,1.24551181e+01,6.77255406,-2.08612363,-1,-0.9246634938035526
1.43157604e+03,5.49910605e+01,-1.03292072e-06,5.58106185,4.19077972,1.93164864,-2.34510013,1.29780577e+01,6.78151217,-2.05893236,-1,-0.922553243432557
1.46853177e+03,5.49910211e+01,-1.06565065e-06,5.58499531,4.19545363,1.92426756,-2.34509968,1.35296878e+01,6.79056822,-2.03148820,-1,-0.9203983073755095
1.50629689e+03,5.49909795e+01,-1.09792844e-06,5.58916008,4.20017103,1.91691513,-2.34509962,1.40829187e+01,6.79971730,-2.00381259,-1,-0.9181961747485332
1.54477594e+03,5.49909359e+01,-1.12880261e-06,5.59350173,4.20493032,1.90956739,-2.34510053,1.46253835e+01,6.80894148,-1.97595702,-1,-0.9159524119467719
1.58405793e+03,5.49908900e+01,-1.16168803e-06,5.59800370,4.20974557,1.90218786,-2.34510080,1.52035111e+01,6.81825304,-1.94788886,-1,-0.9136618286828619
1.62410511e+03,5.49908413e+01,-1.20814825e-06,5.60259567,4.21462355,1.89472788,-2.34510063,1.59745905e+01,6.82765299,-1.91959876,-1,-0.9113266262077634
1.66487412e+03,5.49907899e+01,-1.25787241e-06,5.60726660,4.21956212,1.88718621,-2.34510042,1.68050407e+01,6.83713027,-1.89111879,-1,-0.9089493328987386
1.70639765e+03,5.49907356e+01,-1.30748876e-06,5.61200616,4.22456556,1.87954911,-2.34510031,1.76539601e+01,6.84668187,-1.86246123,-1,-0.9065280425599225
1.74867998e+03,5.49906782e+01,-1.35819129e-06,5.61679161,4.22963551,1.87180194,-2.34510026,1.85398654e+01,6.85630208,-1.83364502,-1,-0.9040625056190211
1.79172164e+03,5.49906175e+01,-1.41059716e-06,5.62159527,4.23477310,1.86392858,-2.34510023,1.94740473e+01,6.86598512,-1.80468631,-1,-0.9015526911710537
1.83558274e+03,5.49905533e+01,-1.46005543e-06,5.62638263,4.23997834,1.85591178,-2.34510039,2.03956890e+01,6.87572688,-1.77560107,-1,-0.8989950941247563
1.88023153e+03,5.49904857e+01,-1.50701758e-06,5.63111510,4.24524478,1.84774514,-2.34510009,2.13116134e+01,6.88551635,-1.74642068,-1,-0.8963915658633869
1.92553665e+03,5.49904152e+01,-1.55677535e-06,5.63578223,4.25056446,1.83943935,-2.34509908,2.22932169e+01,6.89534260,-1.71716803,-1,-0.8937497661571745
1.97167939e+03,5.49903400e+01,-1.62812693e-06,5.64035485,4.25597116,1.83091226,-2.34510053,2.36273261e+01,6.90522088,-1.68780388,-1,-0.8910591237534939
2.01858571e+03,5.49902605e+01,-1.69565714e-06,5.64484036,4.26145292,1.82219149,-2.34510038,2.49524813e+01,6.91513617,-1.65836715,-1,-0.8883239560197919
2.06627009e+03,5.49901765e+01,-1.76213169e-06,5.64922054,4.26700794,1.81327154,-2.34510001,2.63115420e+01,6.92508190,-1.62887681,-1,-0.8855434186086798
2.11474840e+03,5.49900879e+01,-1.82885350e-06,5.65347298,4.27263363,1.80414639,-2.34509995,2.77279689e+01,6.93505321,-1.59934881,-1,-0.8827165861200854
2.16401391e+03,5.49899946e+01,-1.89631968e-06,5.65758129,4.27832577,1.79481626,-2.34509993,2.92127386e+01,6.94504465,-1.56979516,-1,-0.8798438509889478
2.21413708e+03,5.49898963e+01,-1.96022500e-06,5.66151818,4.28407792,1.78528040,-2.34510004,3.07036290e+01,6.95505405,-1.54022042,-1,-0.8769211046022164
2.26515862e+03,5.49897931e+01,-2.01803793e-06,5.66526193,4.28987788,1.77555235,-2.34510031,3.21606585e+01,6.96507792,-1.51063403,-1,-0.873945973107531
2.31696257e+03,5.49896853e+01,-2.08039800e-06,5.66882989,4.29572509,1.76564191,-2.34510050,3.37487876e+01,6.97510935,-1.48104841,-1,-0.8709252182813516
2.36961047e+03,5.49895715e+01,-2.16261737e-06,5.67221664,4.30164626,1.75549294,-2.34510020,3.57394242e+01,6.98514399,-1.45147839,-1,-0.867855251647278
2.42310851e+03,5.49894518e+01,-2.23885235e-06,5.67542854,4.30762900,1.74513342,-2.34510006,3.77180886e+01,6.99517730,-1.42193516,-1,-0.8647357122584642
2.47747812e+03,5.49893264e+01,-2.31259216e-06,5.67845702,4.31366418,1.73457731,-2.34510004,3.97429222e+01,7.00520901,-1.39241504,-1,-0.8615653505041
2.53274667e+03,5.49891950e+01,-2.38512275e-06,5.68129529,4.31974510,1.72383460,-2.34509926,4.18397230e+01,7.01523918,-1.36291797,-1,-0.85834257040435
2.58909673e+03,5.49890571e+01,-2.44807797e-06,5.68391467,4.32585641,1.71292167,-2.34509882,4.38684255e+01,7.02527304,-1.33342844,-1,-0.8550567260681459
2.64661534e+03,5.49889125e+01,-2.50803650e-06,5.68630472,4.33199252,1.70184447,-2.34509879,4.59522937e+01,7.03530610,-1.30395733,-1,-0.8517027420813528
2.70501710e+03,5.49887618e+01,-2.58376726e-06,5.68853434,4.33816656,1.69061119,-2.34509874,4.84384210e+01,7.04533272,-1.27451582,-1,-0.8482972604843437
2.76440685e+03,5.49886042e+01,-2.66181741e-06,5.69059799,4.34438080,1.67921455,-2.34509871,5.11088942e+01,7.05535184,-1.24510757,-1,-0.8448341679221338
2.82490705e+03,5.49884392e+01,-2.73479213e-06,5.69248287,4.35062576,1.66766707,-2.34509870,5.38485395e+01,7.06536572,-1.21572404,-1,-0.841306323594919
2.88671236e+03,5.49882661e+01,-2.80198168e-06,5.69417088,4.35688970,1.65598319,-2.34509872,5.66623491e+01,7.07537909,-1.18634857,-1,-0.8377023766282106
2.94985289e+03,5.49880854e+01,-2.85987096e-06,5.69567727,4.36315372,1.64420835,-2.34509877,5.94555751e+01,7.08539698,-1.15696572,-1,-0.8340205712692557
3.01421053e+03,5.49878973e+01,-2.92301092e-06,5.69703424,4.36942534,1.63234359,-2.34509881,6.25216878e+01,7.09541394,-1.12758870,-1,-0.8302677946637744
3.07983008e+03,5.49877008e+01,-2.99960001e-06,5.69825684,4.37572074,1.62036408,-2.34509879,6.60749589e+01,7.10542689,-1.09822310,-1,-0.8264414344662562
