star_age,star_mass,star_mdot,log_L,log_Teff,log_R,log_surf_z,v_wind_Km_per_s,log_center_T,log_center_Rho,phase,x
2.68766934e+02,1.24999366e+02,-2.83965174e-06,6.31755758,4.46507857,1.75129880,-2.34509849,4.38530096e+01,7.21368809,-1.04526585,-1,-1.0
2.74034493e+02,1.24999350e+02,-2.85764284e-06,6.31769253,4.46575624,1.75001094,-2.34509849,4.43312026e+01,7.21479118,-1.04207483,-1,-0.999350682733329
2.79302051e+02,1.24999334e+02,-2.87563394e-06,6.31782748,4.46643390,1.74872309,-2.34509849,4.48093956e+01,7.21589427,-1.03888382,-1,-0.9987013655899254
2.84569609e+02,1.24999318e+02,-2.89362504e-06,6.31796243,4.46711157,1.74743523,-2.34509849,4.52875886e+01,7.21699735,-1.03569280,-1,-0.9980520484465216
2.89837167e+02,1.24999303e+02,-2.91161615e-06,6.31809738,4.46778923,1.74614738,-2.34509849,4.57657817e+01,7.21810044,-1.03250179,-1,-0.997402731303118
2.95104726e+02,1.24999287e+02,-2.92960725e-06,6.31823233,4.46846690,1.74485952,-2.34509849,4.62439747e+01,7.21920353,-1.02931077,-1,-0.996753414036447
3.00372284e+02,1.24999271e+02,-2.94759835e-06,6.31836728,4.46914456,1.74357167,-2.34509849,4.67221677e+01,7.22030661,-1.02611975,-1,-0.9961040968930432
3.05639842e+02,1.24999255e+02,-2.96558945e-06,6.31850223,4.46982223,1.74228381,-2.34509849,4.72003607e+01,7.22140970,-1.02292874,-1,-0.9954547797496396
3.10907400e+02,1.24999239e+02,-2.98358055e-06,6.31863718,4.47049989,1.74099596,-2.34509849,4.76785537e+01,7.22251279,-1.01973772,-1,-0.9948054626062358
3.16174959e+02,1.24999223e+02,-3.00157165e-06,6.31877213,4.47117756,1.73970811,-2.34509849,4.81567468e+01,7.22361588,-1.01654671,-1,-0.994156145339565
3.21442517e+02,1.24999207e+02,-3.01956275e-06,6.31890708,4.47185522,1.73842025,-2.34509849,4.86349398e+01,7.22471896,-1.01335569,-1,-0.9935068281961612
3.27406881e+02,1.24999188e+02,-3.04610207e-06,6.31901367,4.47261678,1.73695044,-2.34509849,4.93113127e+01,7.22594742,-1.00980158,-1,-0.9927716177258257
3.33550499e+02,1.24999168e+02,-3.07484041e-06,6.31911297,4.47339991,1.73543382,-2.34509849,5.00386674e+01,7.22720813,-1.00615406,-1,-0.9920143111162119
3.39694117e+02,1.24999148e+02,-3.10357876e-06,6.31921227,4.47418304,1.73391720,-2.34509849,5.07660222e+01,7.22846885,-1.00250654,-1,-0.9912570045065981
3.45837734e+02,1.24999128e+02,-3.13231711e-06,6.31931156,4.47496618,1.73240057,-2.34509849,5.14933769e+01,7.22972956,-9.98859015e-01,-1,-0.9904996980202516
3.51981352e+02,1.24999108e+02,-3.16105545e-06,6.31941086,4.47574931,1.73088395,-2.34509849,5.22207317e+01,7.23099027,-9.95211494e-01,-1,-0.9897423914106379
3.58124970e+02,1.24999088e+02,-3.18979380e-06,6.31951016,4.47653245,1.72936733,-2.34509849,5.29480865e+01,7.23225098,-9.91563973e-01,-1,-0.9889850848010242
3.64268588e+02,1.24999069e+02,-3.21853215e-06,6.31960945,4.47731558,1.72785071,-2.34509849,5.36754412e+01,7.23351169,-9.87916452e-01,-1,-0.9882277781914105
3.70691876e+02,1.24999047e+02,-3.24739518e-06,6.31969646,4.47813065,1.72626409,-2.34509850,5.44336186e+01,7.23481995,-9.84130954e-01,-1,-0.987435997443022
3.77601780e+02,1.24999024e+02,-3.27647514e-06,6.31976208,4.47900126,1.72455567,-2.34509850,5.52454262e+01,7.23621094,-9.80105380e-01,-1,-0.9865842329011842
3.84511684e+02,1.24999000e+02,-3.30555511e-06,6.31982770,4.47987187,1.72284726,-2.34509850,5.60572337e+01,7.23760193,-9.76079806e-01,-1,-0.9857324683593465
3.91421587e+02,1.24998977e+02,-3.33463508e-06,6.31989332,4.48074249,1.72113884,-2.34509850,5.68690413e+01,7.23899292,-9.72054233e-01,-1,-0.9848807039407759
3.98331491e+02,1.24998953e+02,-3.36371505e-06,6.31995894,4.48161310,1.71943042,-2.34509850,5.76808488e+01,7.24038391,-9.68028659e-01,-1,-0.9840289393989381
4.05241395e+02,1.24998929e+02,-3.39279501e-06,6.32002456,4.48248371,1.71772201,-2.34509850,5.84926564e+01,7.24177490,-9.64003085e-01,-1,-0.9831771748571003
4.12334501e+02,1.24998905e+02,-3.42211707e-06,6.32008221,4.48337419,1.71596988,-2.34509850,5.93286842e+01,7.24319570,-9.59891078e-01,-1,-0.9823028275170654
4.19962872e+02,1.24998878e+02,-3.45214645e-06,6.32011657,4.48432270,1.71409005,-2.34509850,6.02354770e+01,7.24470360,-9.55526538e-01,-1,-0.981362499557403
4.27591243e+02,1.24998850e+02,-3.48217582e-06,6.32015093,4.48527120,1.71221021,-2.34509850,6.11422698e+01,7.24621150,-9.51161999e-01,-1,-0.9804221715977405
4.35219614e+02,1.24998823e+02,-3.51220520e-06,6.32018529,4.48621971,1.71033038,-2.34509850,6.20490625e+01,7.24771939,-9.46797459e-01,-1,-0.979481843638078
4.42847985e+02,1.24998796e+02,-3.54223458e-06,6.32021965,4.48716821,1.70845055,-2.34509850,6.29558553e+01,7.24922729,-9.42432919e-01,-1,-0.9785415156784155
4.50476356e+02,1.24998768e+02,-3.57226395e-06,6.32025401,4.48811672,1.70657072,-2.34509850,6.38626480e+01,7.25073519,-9.38068379e-01,-1,-0.977601187718753
4.58736172e+02,1.24998738e+02,-3.60341132e-06,6.32026236,4.48912996,1.70454841,-2.34509850,6.48620461e+01,7.25234104,-9.33419198e-01,-1,-0.97658302329984
4.67062423e+02,1.24998707e+02,-3.63467631e-06,6.32026796,4.49015001,1.70251111,-2.34509850,6.58711873e+01,7.25395719,-9.28740069e-01,-1,-0.9755566696242692
4.75388674e+02,1.24998676e+02,-3.66594130e-06,6.32027357,4.49117006,1.70047382,-2.34509850,6.68803285e+01,7.25557334,-9.24060939e-01,-1,-0.9745303159486984
4.83714926e+02,1.24998645e+02,-3.69720630e-06,6.32027918,4.49219011,1.69843652,-2.34509851,6.78894697e+01,7.25718949,-9.19381810e-01,-1,-0.9735039621498605
4.92083076e+02,1.24998613e+02,-3.72825765e-06,6.32028310,4.49321411,1.69639048,-2.34509851,6.88994592e+01,7.25881168,-9.14685122e-01,-1,-0.9724724437017345
5.01166720e+02,1.24998578e+02,-3.75566089e-06,6.32025819,4.49430553,1.69419520,-2.34509851,6.99239348e+01,7.26053701,-9.09688587e-01,-1,-0.9713527283091794
5.10250364e+02,1.24998543e+02,-3.78306413e-06,6.32023329,4.49539694,1.69199991,-2.34509851,7.09484104e+01,7.26226234,-9.04692051e-01,-1,-0.9702330129166244
5.19334007e+02,1.24998508e+02,-3.81046737e-06,6.32020838,4.49648836,1.68980462,-2.34509851,7.19728860e+01,7.26398766,-8.99695516e-01,-1,-0.9691132976473366
5.28417651e+02,1.24998473e+02,-3.83787062e-06,6.32018347,4.49757978,1.68760933,-2.34509851,7.29973615e+01,7.26571299,-8.94698981e-01,-1,-0.9679935822547816
5.37501295e+02,1.24998438e+02,-3.86527386e-06,6.32015857,4.49867120,1.68541404,-2.34509851,7.40218371e+01,7.26743832,-8.89702446e-01,-1,-0.9668738668622265
5.47236068e+02,1.24998399e+02,-3.89392724e-06,6.32011222,4.49981988,1.68309350,-2.34509851,7.51444794e+01,7.26925269,-8.84446198e-01,-1,-0.9656738886187893
5.57222603e+02,1.24998358e+02,-3.92306399e-06,6.32005757,4.50099071,1.68072452,-2.34509851,7.63050783e+01,7.27110150,-8.79089532e-01,-1,-0.9644428763776899
5.67209138e+02,1.24998318e+02,-3.95220075e-06,6.32000293,4.50216154,1.67835555,-2.34509851,7.74656773e+01,7.27295031,-8.73732866e-01,-1,-0.9632118641365904
5.77195674e+02,1.24998278e+02,-3.98133750e-06,6.31994829,4.50333236,1.67598657,-2.34509851,7.86262762e+01,7.27479912,-8.68376199e-01,-1,-0.9619808517722238
5.87182209e+02,1.24998237e+02,-4.01047426e-06,6.31989364,4.50450319,1.67361759,-2.34509852,7.97868751e+01,7.27664793,-8.63019533e-01,-1,-0.9607498395311245
5.97168744e+02,1.24998197e+02,-4.03961101e-06,6.31983900,4.50567402,1.67124862,-2.34509852,8.09474741e+01,7.27849673,-8.57662867e-01,-1,-0.959518827290025
6.07971059e+02,1.24998151e+02,-4.08122270e-06,6.31976396,4.50691651,1.66872611,-2.34509852,8.24645743e+01,7.28045769,-8.51979426e-01,-1,-0.9581872561297364
6.18865139e+02,1.24998105e+02,-4.12423767e-06,6.31968663,4.50816706,1.66618634,-2.34509852,8.40217767e+01,7.28243127,-8.46259227e-01,-1,-0.956844373354528
6.29759219e+02,1.24998059e+02,-4.16725263e-06,6.31960929,4.50941762,1.66364657,-2.34509852,8.55789790e+01,7.28440485,-8.40539028e-01,-1,-0.9555014905793195
6.40653299e+02,1.24998013e+02,-4.21026760e-06,6.31953196,4.51066817,1.66110679,-2.34509852,8.71361814e+01,7.28637842,-8.34818829e-01,-1,-0.9541586078041111
6.51831861e+02,1.24997965e+02,-4.25241818e-06,6.31944726,4.51194209,1.65851660,-2.34509852,8.87164403e+01,7.28838878,-8.28991340e-01,-1,-0.9527806577283451
6.63525756e+02,1.24997913e+02,-4.29300294e-06,6.31934922,4.51325833,1.65583509,-2.34509853,9.03384661e+01,7.29046579,-8.22969496e-01,-1,-0.9513391839948498
6.75219651e+02,1.24997862e+02,-4.33358769e-06,6.31925118,4.51457458,1.65315358,-2.34509853,9.19604918e+01,7.29254279,-8.16947652e-01,-1,-0.9498977102613545
6.86913546e+02,1.24997810e+02,-4.37417244e-06,6.31915314,4.51589083,1.65047207,-2.34509853,9.35825176e+01,7.29461979,-8.10925808e-01,-1,-0.9484562365278593
6.98915042e+02,1.24997757e+02,-4.41443146e-06,6.31904769,4.51723094,1.64773911,-2.34509853,9.52413046e+01,7.29673458,-8.04793738e-01,-1,-0.9469768456793312
7.11366625e+02,1.24997700e+02,-4.45421384e-06,6.31893139,4.51860599,1.64493086,-2.34509853,9.69538812e+01,7.29890466,-7.98500384e-01,-1,-0.9454419738650266
7.23818208e+02,1.24997644e+02,-4.49399623e-06,6.31881510,4.51998104,1.64212262,-2.34509853,9.86664579e+01,7.30107474,-7.92207029e-01,-1,-0.943907102050722
7.36269791e+02,1.24997587e+02,-4.53377862e-06,6.31869880,4.52135609,1.63931438,-2.34509853,1.00379034e+02,7.30324482,-7.85913675e-01,-1,-0.9423722302364175
7.49364787e+02,1.24997526e+02,-4.56835368e-06,6.31856866,4.52277606,1.63640936,-2.34509854,1.02061531e+02,7.30548669,-7.79410398e-01,-1,-0.9407580467009723
7.62634922e+02,1.24997464e+02,-4.60151129e-06,6.31843475,4.52420826,1.63347800,-2.34509854,1.03735840e+02,7.30774811,-7.72849978e-01,-1,-0.9391222742707908
7.75905057e+02,1.24997402e+02,-4.63466889e-06,6.31830083,4.52564046,1.63054664,-2.34509854,1.05410149e+02,7.31000952,-7.66289559e-01,-1,-0.9374865018406093
7.89175193e+02,1.24997340e+02,-4.66782650e-06,6.31816692,4.52707267,1.62761528,-2.34509854,1.07084458e+02,7.31227094,-7.59729140e-01,-1,-0.9358507292871607
8.03138198e+02,1.24997273e+02,-4.70154693e-06,6.31802174,4.52855064,1.62458673,-2.34509854,1.08859720e+02,7.31460566,-7.52954175e-01,-1,-0.93412954870976
8.17384121e+02,1.24997204e+02,-4.73549719e-06,6.31787195,4.53004731,1.62151851,-2.34509854,1.10676203e+02,7.31697031,-7.46091605e-01,-1,-0.932373493621708
8.31630045e+02,1.24997135e+02,-4.76944744e-06,6.31772217,4.53154398,1.61845028,-2.34509854,1.12492686e+02,7.31933495,-7.39229035e-01,-1,-0.9306174384103887
8.45875968e+02,1.24997067e+02,-4.80339769e-06,6.31757239,4.53304065,1.61538205,-2.34509855,1.14309169e+02,7.32169960,-7.32366465e-01,-1,-0.9288613833223366
8.60271658e+02,1.24996997e+02,-4.83955450e-06,6.31742052,4.53454831,1.61229079,-2.34509855,1.16200718e+02,7.32408063,-7.25455965e-01,-1,-0.927086866875033
8.75490618e+02,1.24996920e+02,-4.88784068e-06,6.31725715,4.53611639,1.60907294,-2.34509855,1.18504902e+02,7.32655167,-7.18281994e-01,-1,-0.9252108682371869
8.90709578e+02,1.24996844e+02,-4.93612687e-06,6.31709378,4.53768448,1.60585509,-2.34509855,1.20809086e+02,7.32902271,-7.11108024e-01,-1,-0.9233348695993409
9.05928538e+02,1.24996768e+02,-4.98441306e-06,6.31693041,4.53925256,1.60263724,-2.34509855,1.23113270e+02,7.33149376,-7.03934053e-01,-1,-0.9214588709614947
9.21602358e+02,1.24996688e+02,-5.03047965e-06,6.31676047,4.54084785,1.59936170,-2.34509855,1.25431187e+02,7.33401146,-6.96623467e-01,-1,-0.9195268030035103
9.37685549e+02,1.24996606e+02,-5.07454863e-06,6.31658462,4.54246761,1.59603424,-2.34509855,1.27761466e+02,7.33657116,-6.89189929e-01,-1,-0.9175442730272032
9.53768739e+02,1.24996523e+02,-5.11861761e-06,6.31640877,4.54408738,1.59270679,-2.34509856,1.30091744e+02,7.33913085,-6.81756390e-01,-1,-0.9155617431741633
9.70116095e+02,1.24996438e+02,-5.16192213e-06,6.31622957,4.54572320,1.58934554,-2.34509856,1.32441394e+02,7.34171597,-6.74248482e-01,-1,-0.9135466503170702
9.87015656e+02,1.24996349e+02,-5.20362866e-06,6.31604335,4.54739259,1.58591364,-2.34509856,1.34831539e+02,7.34435423,-6.66585114e-01,-1,-0.9114634886939239
1.00391522e+03,1.24996260e+02,-5.24533519e-06,6.31585713,4.54906199,1.58248174,-2.34509856,1.37221684e+02,7.34699249,-6.58921745e-01,-1,-0.9093803267009761
1.02112293e+03,1.24996168e+02,-5.28425789e-06,6.31566793,4.55074783,1.57901545,-2.34509856,1.39579019e+02,7.34965720,-6.51180768e-01,-1,-0.9072591804123696
1.03890742e+03,1.24996072e+02,-5.31796989e-06,6.31547315,4.55246446,1.57548481,-2.34509856,1.41874941e+02,7.35237140,-6.43294525e-01,-1,-0.9050669360661865
1.05669191e+03,1.24995977e+02,-5.35168190e-06,6.31527837,4.55418109,1.57195416,-2.34509856,1.44170862e+02,7.35508560,-6.35408281e-01,-1,-0.9028746917200032
1.07447640e+03,1.24995881e+02,-5.38539390e-06,6.31508360,4.55589772,1.56842351,-2.34509857,1.46466784e+02,7.35779980,-6.27522037e-01,-1,-0.9006824473738201
1.09326988e+03,1.24995777e+02,-5.41877908e-06,6.31488185,4.55766499,1.56478811,-2.34509857,1.48876635e+02,7.36059630,-6.19394144e-01,-1,-0.898365827652079
1.11211042e+03,1.24995673e+02,-5.45214901e-06,6.31467978,4.55943461,1.56114782,-2.34509857,1.51291801e+02,7.36339663,-6.11254980e-01,-1,-0.8960434069757459
1.13095096e+03,1.24995570e+02,-5.48551894e-06,6.31447772,4.56120424,1.55750752,-2.34509857,1.53706966e+02,7.36619696,-6.03115815e-01,-1,-0.893720986299413
1.14990981e+03,1.24995465e+02,-5.52025923e-06,6.31427470,4.56298030,1.55385390,-2.34509857,1.56177019e+02,7.36900764,-5.94946252e-01,-1,-0.8913839818802457
1.16980386e+03,1.24995352e+02,-5.56583161e-06,6.31406414,4.56480717,1.55009488,-2.34509858,1.59080929e+02,7.37190009,-5.86536404e-01,-1,-0.8889316979724595
1.18969791e+03,1.24995240e+02,-5.61140399e-06,6.31385358,4.56663404,1.54633587,-2.34509858,1.61984840e+02,7.37479255,-5.78126557e-01,-1,-0.8864794140646732
1.20960379e+03,1.24995127e+02,-5.65690258e-06,6.31364293,4.56846149,1.54257564,-2.34509858,1.64888247e+02,7.37768596,-5.69713942e-01,-1,-0.8840256719058708
1.23043174e+03,1.24995007e+02,-5.69664814e-06,6.31342448,4.57033397,1.53872146,-2.34509858,1.67752442e+02,7.38065332,-5.61085567e-01,-1,-0.8814582687568299
1.25125969e+03,1.24994887e+02,-5.73639370e-06,6.31320602,4.57220645,1.53486727,-2.34509859,1.70616637e+02,7.38362068,-5.52457192e-01,-1,-0.878890865607789
1.27230652e+03,1.24994765e+02,-5.77527539e-06,6.31298608,4.57408877,1.53099264,-2.34509859,1.73482574e+02,7.38660459,-5.43780553e-01,-1,-0.8762964817332681
1.29402349e+03,1.24994638e+02,-5.81151235e-06,6.31276155,4.57600124,1.52705545,-2.34509859,1.76353842e+02,7.38963916,-5.34956152e-01,-1,-0.8736194915750611
1.31574045e+03,1.24994510e+02,-5.84774931e-06,6.31253703,4.57791370,1.52311826,-2.34509860,1.79225109e+02,7.39267372,-5.26131752e-01,-1,-0.8709425026495262
1.33809044e+03,1.24994378e+02,-5.87868144e-06,6.31230988,4.57985002,1.51913205,-2.34509860,1.82000201e+02,7.39574996,-5.17185449e-01,-1,-0.8681874818862234
1.36077631e+03,1.24994243e+02,-5.90679879e-06,6.31208134,4.58179900,1.51511982,-2.34509860,1.84724262e+02,7.39884832,-5.08174464e-01,-1,-0.8653910581346429
1.38346219e+03,1.24994108e+02,-5.93491614e-06,6.31185281,4.58374798,1.51110759,-2.34509861,1.87448323e+02,7.40194668,-4.99163479e-01,-1,-0.8625946331503903
1.40693005e+03,1.24993968e+02,-5.96193982e-06,6.31162186,4.58572429,1.50703949,-2.34509861,1.90209064e+02,7.40509378,-4.90012109e-01,-1,-0.8597018156784235
1.43077481e+03,1.24993824e+02,-5.98843637e-06,6.31138976,4.58771378,1.50294447,-2.34509862,1.92987485e+02,7.40826438,-4.80793075e-01,-1,-0.8567625387974955
1.45461958e+03,1.24993680e+02,-6.01493293e-06,6.31115765,4.58970326,1.49884945,-2.34509862,1.95765906e+02,7.41143498,-4.71574042e-01,-1,-0.8538232606838956
1.47878091e+03,1.24993533e+02,-6.04344951e-06,6.31092374,4.59170523,1.49472856,-2.34509863,1.98641594e+02,7.41462738,-4.62292038e-01,-1,-0.8508449611043875
1.50378016e+03,1.24993380e+02,-6.07731286e-06,6.31068505,4.59374024,1.49053919,-2.34509863,2.01774732e+02,7.41787749,-4.52843359e-01,-1,-0.847763373469807
1.52877942e+03,1.24993227e+02,-6.11117621e-06,6.31044635,4.59577526,1.48634982,-2.34509863,2.04907870e+02,7.42112760,-4.43394681e-01,-1,-0.8446817846025545
1.55429962e+03,1.24993070e+02,-6.14175925e-06,6.31020485,4.59782821,1.48212316,-2.34509864,2.07977781e+02,7.42441035,-4.33853421e-01,-1,-0.8415359809183631
1.58032838e+03,1.24992908e+02,-6.16914006e-06,6.30996059,4.59989867,1.47786012,-2.34509864,2.10985969e+02,7.42772497,-4.24221783e-01,-1,-0.838327488465211
1.60637345e+03,1.24992747e+02,-6.19644940e-06,6.30971627,4.60196963,1.47359603,-2.34509865,2.13992919e+02,7.43104053,-4.14587486e-01,-1,-0.8351169855239715
1.63338724e+03,1.24992578e+02,-6.21951459e-06,6.30946800,4.60407060,1.46926995,-2.34509865,2.16926372e+02,7.43441209,-4.04795281e-01,-1,-0.831787071177455
1.66040103e+03,1.24992409e+02,-6.24257978e-06,6.30921972,4.60617157,1.46494387,-2.34509866,2.19859825e+02,7.43778365,-3.95003077e-01,-1,-0.8284571568309385
1.68813659e+03,1.24992235e+02,-6.26118311e-06,6.30897012,4.60828992,1.46058238,-2.34509866,2.22678516e+02,7.44119014,-3.85115779e-01,-1,-0.8250382719150244
1.71623142e+03,1.24992058e+02,-6.27756539e-06,6.30871988,4.61041691,1.45620327,-2.34509867,2.25440079e+02,7.44461401,-3.75181146e-01,-1,-0.8215751007909451
1.74432626e+03,1.24991881e+02,-6.29394767e-06,6.30846963,4.61254390,1.45182417,-2.34509868,2.28201641e+02,7.44803787,-3.65246512e-01,-1,-0.8181119284341937
1.77366315e+03,1.24991696e+02,-6.30774191e-06,6.30821748,4.61469773,1.44739043,-2.34509869,2.30932968e+02,7.45151765,-3.55165669e-01,-1,-0.8144956520474602
1.80305528e+03,1.24991509e+02,-6.32142105e-06,6.30796524,4.61685275,1.44295427,-2.34509869,2.33662950e+02,7.45499991,-3.45078324e-01,-1,-0.8108725663804109
1.83244740e+03,1.24991323e+02,-6.33510019e-06,6.30771301,4.61900778,1.43851810,-2.34509870,2.36392932e+02,7.45848217,-3.34990978e-01,-1,-0.8072494819460336
1.86293793e+03,1.24991129e+02,-6.34931481e-06,6.30745590,4.62119110,1.43402290,-2.34509871,2.39206989e+02,7.46202051,-3.24756382e-01,-1,-0.8034909995827706
1.89362429e+03,1.24990933e+02,-6.36362489e-06,6.30719792,4.62337947,1.42951718,-2.34509871,2.42036035e+02,7.46556885,-3.14495533e-01,-1,-0.7997083778030658
1.92465651e+03,1.24990735e+02,-6.37618218e-06,6.30693869,4.62557510,1.42499629,-2.34509872,2.44816263e+02,7.46913245,-3.04197584e-01,-1,-0.7958831228283934
1.95650834e+03,1.24990532e+02,-6.38458555e-06,6.30667648,4.62778795,1.42043949,-2.34509872,2.47480795e+02,7.47273222,-2.93811713e-01,-1,-0.7919568368211427
1.98836017e+03,1.24990328e+02,-6.39298892e-06,6.30641427,4.63000080,1.41588268,-2.34509873,2.50145328e+02,7.47633200,-2.83425841e-01,-1,-0.7880305508138922
2.02132177e+03,1.24990117e+02,-6.39711429e-06,6.30614899,4.63223317,1.41128531,-2.34509874,2.52691649e+02,7.47997492,-2.72944732e-01,-1,-0.7839674665623252
2.05429862e+03,1.24989906e+02,-6.40118089e-06,6.30588367,4.63446580,1.40668739,-2.34509874,2.55236347e+02,7.48361844,-2.62462313e-01,-1,-0.7799025024859063
2.08826519e+03,1.24989688e+02,-6.40220763e-06,6.30561725,4.63670946,1.40206686,-2.34509875,2.57693320e+02,7.48729001,-2.51936952e-01,-1,-0.775715538392939
2.12248854e+03,1.24989469e+02,-6.40244569e-06,6.30535055,4.63895598,1.39744046,-2.34509876,2.60127534e+02,7.49096885,-2.41400449e-01,-1,-0.771496921747483
2.15710209e+03,1.24989248e+02,-6.40182444e-06,6.30508323,4.64120577,1.39280722,-2.34509876,2.62538308e+02,7.49465666,-2.30859170e-01,-1,-0.7672302062392604
2.19283264e+03,1.24989019e+02,-6.39874324e-06,6.30481416,4.64346492,1.38815439,-2.34509877,2.64881983e+02,7.49837014,-2.20304218e-01,-1,-0.7628258012648408
2.22856320e+03,1.24988791e+02,-6.39566204e-06,6.30454510,4.64572407,1.38350156,-2.34509878,2.67225657e+02,7.50208361,-2.09749265e-01,-1,-0.7584213950577491
2.26481624e+03,1.24988559e+02,-6.39029850e-06,6.30427364,4.64798937,1.37883524,-2.34509879,2.69491027e+02,7.50581122,-1.99187077e-01,-1,-0.7539525842022254
2.30206091e+03,1.24988322e+02,-6.38060330e-06,6.30399767,4.65026632,1.37414334,-2.34509879,2.71607781e+02,7.50956565,-1.88611154e-01,-1,-0.7493615378897949
2.33930558e+03,1.24988085e+02,-6.37090810e-06,6.30372169,4.65254328,1.36945144,-2.34509880,2.73724536e+02,7.51332008,-1.78035231e-01,-1,-0.7447704915773643
2.37784502e+03,1.24987840e+02,-6.35736446e-06,6.30343999,4.65482860,1.36473994,-2.34509881,2.75702463e+02,7.51709541,-1.67501790e-01,-1,-0.7400198425879883
