star_age,star_mass,star_mdot,log_L,log_Teff,log_R,log_surf_z,v_wind_Km_per_s,log_center_T,log_center_Rho,phase,x
3.22520331e+02,1.29998864e+02,-4.17117132e-06,6.34961606,4.49715191,1.70318135,-2.34509850,7.59068185e+01,7.27021225,-8.88466841e-01,-1,-1.0
3.28383658e+02,1.29998838e+02,-4.19946265e-06,6.34962764,4.49786335,1.70176426,-2.34509850,7.67918133e+01,7.27132992,-8.85232000e-01,-1,-0.9992978520371234
3.34246985e+02,1.29998812e+02,-4.22775398e-06,6.34963922,4.49857479,1.70034717,-2.34509850,7.76768080e+01,7.27244759,-8.81997159e-01,-1,-0.9985957040742468
3.40110312e+02,1.29998786e+02,-4.25604531e-06,6.34965080,4.49928623,1.69893008,-2.34509850,7.85618027e+01,7.27356526,-8.78762317e-01,-1,-0.9978935561113702
3.45973639e+02,1.29998760e+02,-4.28433664e-06,6.34966238,4.49999767,1.69751300,-2.34509850,7.94467975e+01,7.27468293,-8.75527476e-01,-1,-0.9971914081484936
3.51836966e+02,1.29998735e+02,-4.31262797e-06,6.34967397,4.50070911,1.69609591,-2.34509850,8.03317922e+01,7.27580060,-8.72292635e-01,-1,-0.996489260185617
3.57700293e+02,1.29998709e+02,-4.34091929e-06,6.34968555,4.50142056,1.69467882,-2.34509850,8.12167870e+01,7.27691827,-8.69057794e-01,-1,-0.9957871122227404
3.63563620e+02,1.29998683e+02,-4.36921062e-06,6.34969713,4.50213200,1.69326173,-2.34509850,8.21017817e+01,7.27803594,-8.65822952e-01,-1,-0.9950849642598638
3.69457996e+02,1.29998657e+02,-4.39750364e-06,6.34970750,4.50284673,1.69183744,-2.34509850,8.29906365e+01,7.27915854,-8.62573809e-01,-1,-0.9943790981021638
3.76074317e+02,1.29998627e+02,-4.42583586e-06,6.34968964,4.50363807,1.69024584,-2.34509850,8.39692426e+01,7.28039567,-8.58992118e-01,-1,-0.9935867772386188
3.82690637e+02,1.29998597e+02,-4.45416807e-06,6.34967179,4.50442941,1.68865423,-2.34509850,8.49478487e+01,7.28163281,-8.55410428e-01,-1,-0.992794456494826
3.89306958e+02,1.29998566e+02,-4.48250029e-06,6.34965393,4.50522075,1.68706262,-2.34509851,8.59264548e+01,7.28286994,-8.51828737e-01,-1,-0.9920021356312809
3.95923278e+02,1.29998536e+02,-4.51083251e-06,6.34963607,4.50601208,1.68547102,-2.34509851,8.69050609e+01,7.28410708,-8.48247047e-01,-1,-0.9912098148874883
4.02539599e+02,1.29998506e+02,-4.53916472e-06,6.34961822,4.50680342,1.68387941,-2.34509851,8.78836670e+01,7.28534421,-8.44665357e-01,-1,-0.9904174940239431
4.09155919e+02,1.29998475e+02,-4.56749694e-06,6.34960036,4.50759476,1.68228781,-2.34509851,8.88622731e+01,7.28658135,-8.41083666e-01,-1,-0.9896251732801504
4.16082258e+02,1.29998443e+02,-4.59609778e-06,6.34957127,4.50841723,1.68062833,-2.34509851,8.98854126e+01,7.28786546,-8.37365679e-01,-1,-0.9887957269915428
4.23412582e+02,1.29998408e+02,-4.62504867e-06,6.34952755,4.50928026,1.67888040,-2.34509851,9.09665835e+01,7.28921079,-8.33470083e-01,-1,-0.987917902496367
4.30742905e+02,1.29998373e+02,-4.65399956e-06,6.34948383,4.51014330,1.67713247,-2.34509851,9.20477545e+01,7.29055612,-8.29574487e-01,-1,-0.9870400781209437
4.38073229e+02,1.29998338e+02,-4.68295046e-06,6.34944011,4.51100633,1.67538454,-2.34509851,9.31289255e+01,7.29190145,-8.25678891e-01,-1,-0.986162253625768
4.45403552e+02,1.29998304e+02,-4.71190135e-06,6.34939639,4.51186937,1.67363661,-2.34509851,9.42100964e+01,7.29324678,-8.21783294e-01,-1,-0.9852844292503448
4.52733876e+02,1.29998269e+02,-4.74085224e-06,6.34935266,4.51273240,1.67188868,-2.34509851,9.52912674e+01,7.29459211,-8.17887698e-01,-1,-0.984406604755169
4.60499588e+02,1.29998231e+02,-4.77034103e-06,6.34929482,4.51363691,1.67005075,-2.34509851,9.64398467e+01,7.29600055,-8.13808651e-01,-1,-0.9834766414662229
4.68528373e+02,1.29998192e+02,-4.80015482e-06,6.34922845,4.51456647,1.66815844,-2.34509851,9.76291559e+01,7.29744712,-8.09618758e-01,-1,-0.9825151745324967
4.76557159e+02,1.29998152e+02,-4.82996862e-06,6.34916208,4.51549604,1.66626612,-2.34509852,9.88184651e+01,7.29889369,-8.05428865e-01,-1,-0.981553707479018
4.84585944e+02,1.29998113e+02,-4.85978242e-06,6.34909571,4.51642560,1.66437380,-2.34509852,1.00007774e+02,7.30034026,-8.01238972e-01,-1,-0.9805922405452918
4.92614729e+02,1.29998073e+02,-4.88959622e-06,6.34902934,4.51735517,1.66248149,-2.34509852,1.01197083e+02,7.30178683,-7.97049079e-01,-1,-0.9796307736115656
5.00907092e+02,1.29998032e+02,-4.91807033e-06,6.34895526,4.51830794,1.66053889,-2.34509852,1.02391859e+02,7.30326903,-7.92755447e-01,-1,-0.9786377425580557
5.09695994e+02,1.29997988e+02,-4.94402067e-06,6.34886666,4.51930445,1.65850157,-2.34509852,1.03596931e+02,7.30481837,-7.88266385e-01,-1,-0.9775852497267293
5.18484896e+02,1.29997943e+02,-4.96997101e-06,6.34877806,4.52030096,1.65646425,-2.34509852,1.04802003e+02,7.30636772,-7.83777324e-01,-1,-0.9765327568954031
5.27273798e+02,1.29997899e+02,-4.99592134e-06,6.34868946,4.52129747,1.65442693,-2.34509852,1.06007076e+02,7.30791706,-7.79288263e-01,-1,-0.9754802640640767
5.36062700e+02,1.29997854e+02,-5.02187168e-06,6.34860086,4.52229398,1.65238961,-2.34509852,1.07212148e+02,7.30946640,-7.74799202e-01,-1,-0.9744277712327505
5.44851602e+02,1.29997810e+02,-5.04782202e-06,6.34851226,4.52329049,1.65035230,-2.34509852,1.08417220e+02,7.31101574,-7.70310141e-01,-1,-0.9733752784014241
5.54150219e+02,1.29997762e+02,-5.07450709e-06,6.34841193,4.52432927,1.64822458,-2.34509852,1.09701270e+02,7.31263050,-7.65630286e-01,-1,-0.9722617459335745
5.63845334e+02,1.29997711e+02,-5.10176369e-06,6.34830248,4.52540092,1.64602656,-2.34509852,1.11046754e+02,7.31429616,-7.60802016e-01,-1,-0.9711007318459917
5.73540449e+02,1.29997661e+02,-5.12902029e-06,6.34819303,4.52647257,1.64382853,-2.34509852,1.12392238e+02,7.31596182,-7.55973746e-01,-1,-0.9699397177584089
5.83235564e+02,1.29997610e+02,-5.15627688e-06,6.34808358,4.52754422,1.64163050,-2.34509853,1.13737722e+02,7.31762748,-7.51145477e-01,-1,-0.9687787036708262
5.92930678e+02,1.29997559e+02,-5.18353348e-06,6.34797413,4.52861587,1.63943248,-2.34509853,1.15083206e+02,7.31929313,-7.46317207e-01,-1,-0.967617689702996
6.02625793e+02,1.29997508e+02,-5.21079008e-06,6.34786468,4.52968752,1.63723445,-2.34509853,1.16428690e+02,7.32095879,-7.41488937e-01,-1,-0.9664566756154132
6.12567589e+02,1.29997456e+02,-5.24133756e-06,6.34775064,4.53077981,1.63499285,-2.34509853,1.17882365e+02,7.32265630,-7.36568006e-01,-1,-0.9652661208657405
6.23175953e+02,1.29997398e+02,-5.28077744e-06,6.34762419,4.53192787,1.63263352,-2.34509853,1.19628386e+02,7.32443988,-7.31396688e-01,-1,-0.9639957429434357
6.33784316e+02,1.29997341e+02,-5.32021732e-06,6.34749775,4.53307592,1.63027418,-2.34509853,1.21374407e+02,7.32622346,-7.26225370e-01,-1,-0.9627253651408834
6.44392679e+02,1.29997283e+02,-5.35965720e-06,6.34737130,4.53422398,1.62791485,-2.34509853,1.23120428e+02,7.32800703,-7.21054053e-01,-1,-0.9614549873383311
6.55001042e+02,1.29997226e+02,-5.39909708e-06,6.34724485,4.53537203,1.62555551,-2.34509853,1.24866449e+02,7.32979061,-7.15882735e-01,-1,-0.9601846095357789
6.65891845e+02,1.29997166e+02,-5.43757669e-06,6.34711319,4.53654225,1.62314925,-2.34509853,1.26632449e+02,7.33160850,-7.10611236e-01,-1,-0.9588804088421214
6.77308411e+02,1.29997102e+02,-5.47426874e-06,6.34697180,4.53775370,1.62065564,-2.34509854,1.28435641e+02,7.33349026,-7.05153247e-01,-1,-0.9575132467241044
6.88724978e+02,1.29997039e+02,-5.51096079e-06,6.34683041,4.53896516,1.61816203,-2.34509854,1.30238833e+02,7.33537203,-6.99695258e-01,-1,-0.956146084486335
7.00141545e+02,1.29996975e+02,-5.54765284e-06,6.34668902,4.54017662,1.61566843,-2.34509854,1.32042025e+02,7.33725379,-6.94237269e-01,-1,-0.9547789222485655
7.11612195e+02,1.29996911e+02,-5.58425893e-06,6.34654674,4.54139209,1.61316635,-2.34509854,1.33851018e+02,7.33914179,-6.88761080e-01,-1,-0.953405283437295
7.23796100e+02,1.29996841e+02,-5.61973136e-06,6.34639267,4.54266045,1.61055258,-2.34509854,1.35736513e+02,7.34111205,-6.83044861e-01,-1,-0.9519462305692507
7.35980006e+02,1.29996771e+02,-5.65520380e-06,6.34623860,4.54392882,1.60793882,-2.34509854,1.37622007e+02,7.34308231,-6.77328642e-01,-1,-0.9504871775814538
7.48163911e+02,1.29996702e+02,-5.69067623e-06,6.34608452,4.54519718,1.60532506,-2.34509854,1.39507501e+02,7.34505258,-6.71612423e-01,-1,-0.9490281247134095
7.60473893e+02,1.29996631e+02,-5.72518940e-06,6.34592877,4.54647398,1.60269357,-2.34509854,1.41386145e+02,7.34703612,-6.65857446e-01,-1,-0.9475539738116523
7.73487123e+02,1.29996555e+02,-5.75435187e-06,6.34576365,4.54779788,1.59996322,-2.34509854,1.43226580e+02,7.34909374,-6.59886277e-01,-1,-0.9459956072162117
7.86500354e+02,1.29996479e+02,-5.78351435e-06,6.34559854,4.54912177,1.59723288,-2.34509855,1.45067015e+02,7.35115135,-6.53915108e-01,-1,-0.9444372405010187
7.99513584e+02,1.29996403e+02,-5.81267683e-06,6.34543342,4.55044567,1.59450253,-2.34509855,1.46907449e+02,7.35320897,-6.47943938e-01,-1,-0.9428788739055782
8.12526815e+02,1.29996326e+02,-5.84183930e-06,6.34526831,4.55176956,1.59177218,-2.34509855,1.48747884e+02,7.35526659,-6.41972769e-01,-1,-0.9413205071903852
8.26281200e+02,1.29996244e+02,-5.87115252e-06,6.34509572,4.55314020,1.58894461,-2.34509855,1.50685194e+02,7.35739838,-6.35784363e-01,-1,-0.9396733854439142
8.40283245e+02,1.29996161e+02,-5.90051612e-06,6.34492063,4.55452646,1.58608454,-2.34509855,1.52654876e+02,7.35955496,-6.29523365e-01,-1,-0.9379966057976731
8.54285290e+02,1.29996077e+02,-5.92987972e-06,6.34474555,4.55591272,1.58322448,-2.34509855,1.54624557e+02,7.36171155,-6.23262368e-01,-1,-0.9363198261514318
8.68287336e+02,1.29995993e+02,-5.95924331e-06,6.34457046,4.55729899,1.58036441,-2.34509855,1.56594239e+02,7.36386813,-6.17001370e-01,-1,-0.9346430463854383
8.82289381e+02,1.29995909e+02,-5.98860691e-06,6.34439538,4.55868525,1.57750435,-2.34509855,1.58563920e+02,7.36602471,-6.10740373e-01,-1,-0.932966266739197
8.97122969e+02,1.29995818e+02,-6.02756064e-06,6.34421185,4.56012617,1.57453074,-2.34509856,1.60904098e+02,7.36826747,-6.04227504e-01,-1,-0.9311899077545539
9.12115376e+02,1.29995726e+02,-6.06834601e-06,6.34402670,4.56157753,1.57153543,-2.34509856,1.63315037e+02,7.37052670,-5.97666529e-01,-1,-0.9293945298004219
9.27107783e+02,1.29995633e+02,-6.10913138e-06,6.34384156,4.56302890,1.56854013,-2.34509856,1.65725977e+02,7.37278592,-5.91105554e-01,-1,-0.9275991518462899
9.42100190e+02,1.29995541e+02,-6.14991674e-06,6.34365641,4.56448026,1.56554483,-2.34509856,1.68136917e+02,7.37504515,-5.84544579e-01,-1,-0.925803773892158
9.57911730e+02,1.29995442e+02,-6.18631108e-06,6.34346289,4.56598083,1.56244694,-2.34509856,1.70545706e+02,7.37738328,-5.77753515e-01,-1,-0.9239103027279296
9.73779380e+02,1.29995342e+02,-6.22240463e-06,6.34326879,4.56748477,1.55934201,-2.34509857,1.72954347e+02,7.37972681,-5.70946689e-01,-1,-0.9220101122519185
9.89647031e+02,1.29995243e+02,-6.25849818e-06,6.34307470,4.56898871,1.55623708,-2.34509857,1.75362988e+02,7.38207034,-5.64139863e-01,-1,-0.9201099216561549
1.00592230e+03,1.29995140e+02,-6.29324345e-06,6.34287710,4.57051545,1.55308479,-2.34509857,1.77787977e+02,7.38445101,-5.57224923e-01,-1,-0.918160917793055
1.02262138e+03,1.29995033e+02,-6.32658685e-06,6.34267585,4.57206591,1.54988325,-2.34509857,1.80229964e+02,7.38687028,-5.50197571e-01,-1,-0.9161611615106724
1.03932047e+03,1.29994927e+02,-6.35993026e-06,6.34247461,4.57361637,1.54668172,-2.34509857,1.82671950e+02,7.38928956,-5.43170218e-01,-1,-0.9141614040307651
1.05628218e+03,1.29994818e+02,-6.39119809e-06,6.34227184,4.57517959,1.54345389,-2.34509858,1.85084379e+02,7.39173025,-5.36080277e-01,-1,-0.9121301971539519
1.07388330e+03,1.29994704e+02,-6.41741263e-06,6.34206538,4.57677388,1.54016209,-2.34509858,1.87424846e+02,7.39422311,-5.28837954e-01,-1,-0.9100224193424217
1.09148442e+03,1.29994590e+02,-6.44362718e-06,6.34185891,4.57836817,1.53687028,-2.34509858,1.89765313e+02,7.39671597,-5.21595631e-01,-1,-0.9079146415308914
1.10908554e+03,1.29994476e+02,-6.46984172e-06,6.34165245,4.57996245,1.53357847,-2.34509858,1.92105781e+02,7.39920882,-5.14353308e-01,-1,-0.9058068637193611
1.12738576e+03,1.29994356e+02,-6.49531996e-06,6.34144293,4.58158842,1.53022178,-2.34509859,1.94496331e+02,7.40175574,-5.06954237e-01,-1,-0.9036153669474443
1.14606414e+03,1.29994233e+02,-6.52039992e-06,6.34123175,4.58323152,1.52682999,-2.34509859,1.96913973e+02,7.40433191,-4.99470379e-01,-1,-0.9013785845768149
1.16474252e+03,1.29994110e+02,-6.54547989e-06,6.34102058,4.58487462,1.52343820,-2.34509859,1.99331614e+02,7.40690807,-4.91986521e-01,-1,-0.8991418022061856
1.18342089e+03,1.29993987e+02,-6.57055985e-06,6.34080941,4.58651772,1.52004641,-2.34509860,2.01749255e+02,7.40948423,-4.84502663e-01,-1,-0.8969050210330811
1.20267069e+03,1.29993859e+02,-6.59963337e-06,6.34059449,4.58818872,1.51659695,-2.34509860,2.04353098e+02,7.41210740,-4.76882798e-01,-1,-0.8945998096990071
1.22242637e+03,1.29993727e+02,-6.63224245e-06,6.34037624,4.58988442,1.51309643,-2.34509860,2.07121789e+02,7.41477219,-4.69142525e-01,-1,-0.8922340179791796
1.24218205e+03,1.29993595e+02,-6.66485153e-06,6.34015800,4.59158012,1.50959591,-2.34509861,2.09890480e+02,7.41743697,-4.61402251e-01,-1,-0.8898682262593519
1.26213644e+03,1.29993461e+02,-6.69626306e-06,6.33993852,4.59328449,1.50607744,-2.34509861,2.12641986e+02,7.42011679,-4.53618778e-01,-1,-0.8874786385237634
1.28284945e+03,1.29993321e+02,-6.72310230e-06,6.33971429,4.59502193,1.50249043,-2.34509861,2.15327877e+02,7.42285400,-4.45670367e-01,-1,-0.8849982041600408
1.30356247e+03,1.29993180e+02,-6.74994155e-06,6.33949006,4.59675938,1.49890342,-2.34509862,2.18013767e+02,7.42559121,-4.37721956e-01,-1,-0.8825177685987934
1.32449503e+03,1.29993038e+02,-6.77586417e-06,6.33926474,4.59850558,1.49529836,-2.34509862,2.20689364e+02,7.42834398,-4.29729180e-01,-1,-0.8800110425775785
1.34612173e+03,1.29992891e+02,-6.79888857e-06,6.33903597,4.60027948,1.49163618,-2.34509862,2.23332414e+02,7.43114596,-4.21596131e-01,-1,-0.8774211915682891
1.36774843e+03,1.29992743e+02,-6.82191298e-06,6.33880720,4.60205337,1.48797401,-2.34509863,2.25975463e+02,7.43394794,-4.13463082e-01,-1,-0.8748313405589998
1.38983144e+03,1.29992591e+02,-6.84204196e-06,6.33857721,4.60384230,1.48428115,-2.34509863,2.28554498e+02,7.43677788,-4.05251912e-01,-1,-0.8721868452945053
1.41245535e+03,1.29992436e+02,-6.85873879e-06,6.33834577,4.60564906,1.48055191,-2.34509864,2.31057652e+02,7.43964098,-3.96948139e-01,-1,-0.8694775759123263
1.43507926e+03,1.29992280e+02,-6.87543562e-06,6.33811434,4.60745583,1.47682267,-2.34509864,2.33560806e+02,7.44250407,-3.88644366e-01,-1,-0.8667683065301474
1.45802028e+03,1.29992121e+02,-6.89150804e-06,6.33788220,4.60927212,1.47307401,-2.34509865,2.36062300e+02,7.44538537,-3.80290751e-01,-1,-0.8640210624383013
1.48183837e+03,1.29991956e+02,-6.90585347e-06,6.33764811,4.61111478,1.46927165,-2.34509865,2.38559204e+02,7.44831700,-3.71799281e-01,-1,-0.861168787036791
1.50565646e+03,1.29991791e+02,-6.92019889e-06,6.33741402,4.61295744,1.46546928,-2.34509866,2.41056107e+02,7.45124863,-3.63307811e-01,-1,-0.8583165116352807
1.52947455e+03,1.29991625e+02,-6.93454432e-06,6.33717993,4.61480010,1.46166692,-2.34509867,2.43553011e+02,7.45418026,-3.54816341e-01,-1,-0.8554642362337703
1.55404207e+03,1.29991454e+02,-6.94976376e-06,6.33694209,4.61666800,1.45781220,-2.34509867,2.46132358e+02,7.45715886,-3.46197249e-01,-1,-0.8525222147294385
1.57905516e+03,1.29991279e+02,-6.96550282e-06,6.33670202,4.61855090,1.45392637,-2.34509867,2.48760720e+02,7.46016539,-3.37502282e-01,-1,-0.8495268351115614
1.60406825e+03,1.29991105e+02,-6.98124188e-06,6.33646195,4.62043380,1.45004053,-2.34509868,2.51389082e+02,7.46317192,-3.28807316e-01,-1,-0.8465314554936841
1.62978700e+03,1.29990925e+02,-6.99325739e-06,6.33621884,4.62233691,1.44611275,-2.34509868,2.53927219e+02,7.46621763,-3.20009238e-01,-1,-0.8434515713391364
1.65587132e+03,1.29990742e+02,-7.00334397e-06,6.33597416,4.62425050,1.44216323,-2.34509869,2.56418617e+02,7.46928364,-3.11157745e-01,-1,-0.8403279092696285
1.68195564e+03,1.29990559e+02,-7.01343055e-06,6.33572948,4.62616409,1.43821372,-2.34509869,2.58910014e+02,7.47234965,-3.02306252e-01,-1,-0.8372042472001207
1.70905454e+03,1.29990368e+02,-7.01944250e-06,6.33548137,4.62810303,1.43421178,-2.34509870,2.61306249e+02,7.47546662,-2.93328488e-01,-1,-0.8339590866571054
1.73616916e+03,1.29990178e+02,-7.02539137e-06,6.33523320,4.63004236,1.43020903,-2.34509870,2.63701010e+02,7.47858437,-2.84348769e-01,-1,-0.8307120436050681
1.76380347e+03,1.29989983e+02,-7.02951480e-06,6.33498420,4.63199123,1.42618679,-2.34509871,2.66049287e+02,7.48172280,-2.75324589e-01,-1,-0.8274027663854963
1.79205218e+03,1.29989785e+02,-7.03148020e-06,6.33473420,4.63395136,1.42214153,-2.34509871,2.68342610e+02,7.48488566,-2.66247847e-01,-1,-0.8240199132407899
1.82030089e+03,1.29989586e+02,-7.03344561e-06,6.33448421,4.63591149,1.41809627,-2.34509872,2.70635933e+02,7.48804852,-2.57171106e-01,-1,-0.8206370600960836
1.84929822e+03,1.29989382e+02,-7.03368388e-06,6.33423286,4.63788319,1.41402721,-2.34509873,2.72891759e+02,7.49123733,-2.48050799e-01,-1,-0.8171645578480664
1.87891259e+03,1.29989174e+02,-7.03249857e-06,6.33398038,4.63986441,1.40993852,-2.34509873,2.75116677e+02,7.49444753,-2.38894583e-01,-1,-0.8136181635283612
1.90852696e+03,1.29988966e+02,-7.03131327e-06,6.33372790,4.64184563,1.40584984,-2.34509874,2.77341596e+02,7.49765773,-2.29738368e-01,-1,-0.8100717692086561
1.93843949e+03,1.29988755e+02,-7.02889332e-06,6.33347402,4.64383240,1.40174935,-2.34509874,2.79530178e+02,7.50087942,-2.20563947e-01,-1,-0.8064896694888238
1.96942718e+03,1.29988538e+02,-7.02202125e-06,6.33321506,4.64583917,1.39760633,-2.34509874,2.81587729e+02,7.50414255,-2.11323877e-01,-1,-0.8027788166901054
2.00041488e+03,1.29988321e+02,-7.01514918e-06,6.33295610,4.64784594,1.39346331,-2.34509874,2.83645281e+02,7.50740569,-2.02083808e-01,-1,-0.7990679626938622
2.03199230e+03,1.29988100e+02,-7.00627052e-06,6.33269457,4.64986048,1.38930349,-2.34509875,2.85640975e+02,7.51068578,-1.92834773e-01,-1,-0.795286488263748
2.06423128e+03,1.29987875e+02,-6.99514085e-06,6.33243017,4.65188371,1.38512481,-2.34509875,2.87567278e+02,7.51398489,-1.83575682e-01,-1,-0.7914257903814332
2.09647027e+03,1.29987650e+02,-6.98401117e-06,6.33216577,4.65390695,1.38094613,-2.34509876,2.89493581e+02,7.51728400,-1.74316591e-01,-1,-0.7875650913015936
2.12990354e+03,1.29987417e+02,-6.96937729e-06,6.33189610,4.65594088,1.37674344,-2.34509877,2.91301036e+02,7.52060588,-1.65084179e-01,-1,-0.7835613742271744
2.16336427e+03,1.29987185e+02,-6.95466285e-06,6.33162631,4.65797506,1.37254019,-2.34509878,2.93105759e+02,7.52392827,-1.55852380e-01,-1,-0.7795543687495908
2.19765043e+03,1.29986947e+02,-6.93959596e-06,6.33135322,4.66001051,1.36833274,-2.34509880,2.94901630e+02,7.52725045,-1.46672278e-01,-1,-0.7754485159805297
2.23247692e+03,1.29986707e+02,-6.92429836e-06,6.33107795,4.66204679,1.36412254,-2.34509882,2.96691708e+02,7.53057248,-1.37526017e-01,-1,-0.7712779573526991
2.26730340e+03,1.29986466e+02,-6.90900075e-06,6.33080269,4.66408308,1.35991234,-2.34509884,2.98481785e+02,7.53389452,-1.28379757e-01,-1,-0.7671073999223934
2.30356880e+03,1.29986218e+02,-6.89078760e-06,6.33052039,4.66611692,1.35570351,-2.34509886,3.00141724e+02,7.53719975,-1.19335994e-01,-1,-0.7627645282502344
2.34005251e+03,1.29985968e+02,-6.87213214e-06,6.33023704,4.66815039,1.35149490,-2.34509888,3.01781919e+02,7.54050244,-1.10307782e-01,-1,-0.7583955134136612
2.37653621e+03,1.29985718e+02,-6.85347667e-06,6.32995368,4.67018386,1.34728628,-2.34509890,3.03422114e+02,7.54380512,-1.01279569e-01,-1,-0.7540264997746129
2.41424790e+03,1.29985462e+02,-6.82608223e-06,6.32966213,4.67222007,1.34306807,-2.34509891,3.04663522e+02,7.54709906,-9.22873256e-02,-1,-0.749510431284806
2.45240439e+03,1.29985204e+02,-6.79552230e-06,6.32936761,4.67425729,1.33884638,-2.34509891,3.05760479e+02,7.55038982,-8.33081111e-02,-1,-0.7449410968908654
2.49073241e+03,1.29984945e+02,-6.76476734e-06,6.32907218,4.67629434,1.33462457,-2.34509892,3.06844741e+02,7.55367816,-7.43311001e-02,-1,-0.7403512213536332
2.53043053e+03,1.29984679e+02,-6.73245446e-06,6.32876946,4.67833007,1.33040175,-2.34509892,3.07827601e+02,7.55694720,-6.53716892e-02,-1,-0.7355972729403807
