star_age,star_mass,star_mdot,log_L,log_Teff,log_R,log_surf_z,v_wind_Km_per_s,log_center_T,log_center_Rho,phase
3.87024407e+02,1.74995497e+02,-1.16622948e-05,6.51625403,4.61447517,1.55185383,-2.34509855,3.21189210e+02,7.41694534,-6.00762479e-01,-1
3.92947347e+02,1.74995428e+02,-1.16633560e-05,6.51609646,4.61503064,1.55066411,-2.34509855,3.22069815e+02,7.41781666,-5.98161841e-01,-1
3.98870286e+02,1.74995359e+02,-1.16644172e-05,6.51593888,4.61558610,1.54947439,-2.34509855,3.22950421e+02,7.41868799,-5.95561202e-01,-1
4.04793226e+02,1.74995290e+02,-1.16654783e-05,6.51578130,4.61614157,1.54828467,-2.34509855,3.23831026e+02,7.41955932,-5.92960564e-01,-1
4.10716165e+02,1.74995221e+02,-1.16665395e-05,6.51562373,4.61669703,1.54709495,-2.34509855,3.24711631e+02,7.42043065,-5.90359925e-01,-1
4.16639105e+02,1.74995152e+02,-1.16676007e-05,6.51546615,4.61725250,1.54590523,-2.34509856,3.25592237e+02,7.42130198,-5.87759286e-01,-1
4.22562044e+02,1.74995083e+02,-1.16686619e-05,6.51530857,4.61780796,1.54471551,-2.34509856,3.26472842e+02,7.42217331,-5.85158648e-01,-1
4.28484984e+02,1.74995013e+02,-1.16697231e-05,6.51515100,4.61836343,1.54352579,-2.34509856,3.27353447e+02,7.42304464,-5.82558009e-01,-1
4.34407923e+02,1.74994944e+02,-1.16707843e-05,6.51499342,4.61891890,1.54233607,-2.34509856,3.28234053e+02,7.42391596,-5.79957371e-01,-1
4.40330863e+02,1.74994875e+02,-1.16718455e-05,6.51483584,4.61947436,1.54114635,-2.34509856,3.29114658e+02,7.42478729,-5.77356732e-01,-1
4.46541532e+02,1.74994803e+02,-1.16723986e-05,6.51467670,4.62004972,1.53991606,-2.34509856,3.30011748e+02,7.42569345,-5.74651916e-01,-1
4.53251259e+02,1.74994724e+02,-1.16720707e-05,6.51451485,4.62065960,1.53861538,-2.34509856,3.30937429e+02,7.42666001,-5.71766407e-01,-1
4.59960986e+02,1.74994646e+02,-1.16717428e-05,6.51435300,4.62126947,1.53731471,-2.34509856,3.31863110e+02,7.42762656,-5.68880898e-01,-1
4.66670713e+02,1.74994568e+02,-1.16714149e-05,6.51419115,4.62187934,1.53601404,-2.34509857,3.32788792e+02,7.42859312,-5.65995390e-01,-1
4.73380440e+02,1.74994489e+02,-1.16710869e-05,6.51402930,4.62248921,1.53471337,-2.34509857,3.33714473e+02,7.42955968,-5.63109881e-01,-1
4.80090168e+02,1.74994411e+02,-1.16707590e-05,6.51386744,4.62309909,1.53341270,-2.34509857,3.34640154e+02,7.43052624,-5.60224372e-01,-1
4.86799895e+02,1.74994333e+02,-1.16704311e-05,6.51370559,4.62370896,1.53211203,-2.34509857,3.35565835e+02,7.43149280,-5.57338863e-01,-1
4.93509622e+02,1.74994255e+02,-1.16701031e-05,6.51354374,4.62431883,1.53081136,-2.34509857,3.36491517e+02,7.43245936,-5.54453354e-01,-1
5.00400250e+02,1.74994174e+02,-1.16695444e-05,6.51338178,4.62494001,1.52948801,-2.34509857,3.37427666e+02,7.43344630,-5.51506759e-01,-1
5.07949918e+02,1.74994086e+02,-1.16681446e-05,6.51321941,4.62560239,1.52808207,-2.34509857,3.38401954e+02,7.43450751,-5.48337620e-01,-1
5.15499587e+02,1.74993998e+02,-1.16667448e-05,6.51305704,4.62626477,1.52667613,-2.34509858,3.39376242e+02,7.43556872,-5.45168480e-01,-1
5.23049255e+02,1.74993910e+02,-1.16653450e-05,6.51289466,4.62692715,1.52527018,-2.34509858,3.40350530e+02,7.43662993,-5.41999341e-01,-1
5.30598924e+02,1.74993822e+02,-1.16639452e-05,6.51273229,4.62758953,1.52386424,-2.34509858,3.41324818e+02,7.43769114,-5.38830201e-01,-1
5.38148592e+02,1.74993734e+02,-1.16625454e-05,6.51256992,4.62825191,1.52245830,-2.34509858,3.42299106e+02,7.43875235,-5.35661062e-01,-1
5.45698261e+02,1.74993646e+02,-1.16611456e-05,6.51240755,4.62891429,1.52105235,-2.34509858,3.43273394e+02,7.43981356,-5.32491923e-01,-1
5.53247929e+02,1.74993558e+02,-1.16597458e-05,6.51224518,4.62957666,1.51964641,-2.34509858,3.44247681e+02,7.44087477,-5.29322783e-01,-1
5.60797598e+02,1.74993470e+02,-1.16583460e-05,6.51208281,4.63023904,1.51824047,-2.34509859,3.45221969e+02,7.44193598,-5.26153644e-01,-1
5.68871964e+02,1.74993376e+02,-1.16562414e-05,6.51192089,4.63093201,1.51677358,-2.34509859,3.46222385e+02,7.44305319,-5.22816572e-01,-1
5.77424686e+02,1.74993277e+02,-1.16534941e-05,6.51175940,4.63165287,1.51525112,-2.34509859,3.47246622e+02,7.44422145,-5.19326401e-01,-1
5.85977408e+02,1.74993177e+02,-1.16507468e-05,6.51159790,4.63237372,1.51372866,-2.34509859,3.48270859e+02,7.44538972,-5.15836229e-01,-1
5.94530130e+02,1.74993078e+02,-1.16479996e-05,6.51143640,4.63309458,1.51220620,-2.34509859,3.49295096e+02,7.44655798,-5.12346058e-01,-1
6.03082851e+02,1.74992978e+02,-1.16452523e-05,6.51127490,4.63381543,1.51068374,-2.34509860,3.50319332e+02,7.44772625,-5.08855886e-01,-1
6.11635573e+02,1.74992879e+02,-1.16425050e-05,6.51111340,4.63453629,1.50916128,-2.34509860,3.51343569e+02,7.44889451,-5.05365715e-01,-1
6.20188295e+02,1.74992779e+02,-1.16397578e-05,6.51095191,4.63525714,1.50763882,-2.34509860,3.52367806e+02,7.45006278,-5.01875543e-01,-1
6.28741017e+02,1.74992680e+02,-1.16370105e-05,6.51079041,4.63597800,1.50611637,-2.34509860,3.53392043e+02,7.45123104,-4.98385372e-01,-1
6.37293739e+02,1.74992580e+02,-1.16342632e-05,6.51062891,4.63669885,1.50459391,-2.34509861,3.54416280e+02,7.45239931,-4.94895200e-01,-1
6.46167484e+02,1.74992477e+02,-1.16303800e-05,6.51046686,4.63743833,1.50303392,-2.34509861,3.55435205e+02,7.45360151,-4.91303482e-01,-1
6.55737139e+02,1.74992366e+02,-1.16240343e-05,6.51030363,4.63821819,1.50139259,-2.34509861,3.56442618e+02,7.45487727,-4.87491632e-01,-1
6.65306794e+02,1.74992255e+02,-1.16176886e-05,6.51014039,4.63899805,1.49975125,-2.34509861,3.57450030e+02,7.45615303,-4.83679783e-01,-1
6.74876449e+02,1.74992144e+02,-1.16113428e-05,6.50997715,4.63977791,1.49810992,-2.34509861,3.58457443e+02,7.45742879,-4.79867933e-01,-1
6.84446105e+02,1.74992034e+02,-1.16049971e-05,6.50981392,4.64055777,1.49646858,-2.34509861,3.59464855e+02,7.45870455,-4.76056083e-01,-1
6.94015760e+02,1.74991923e+02,-1.15986514e-05,6.50965068,4.64133762,1.49482724,-2.34509861,3.60472267e+02,7.45998031,-4.72244234e-01,-1
7.03585415e+02,1.74991812e+02,-1.15923057e-05,6.50948744,4.64211748,1.49318591,-2.34509861,3.61479680e+02,7.46125606,-4.68432384e-01,-1
7.13376915e+02,1.74991698e+02,-1.15854322e-05,6.50932427,4.64290908,1.49152113,-2.34509861,3.62489060e+02,7.46255370,-4.64554884e-01,-1
7.23853945e+02,1.74991578e+02,-1.15769281e-05,6.50916130,4.64373696,1.48978389,-2.34509861,3.63504520e+02,7.46391894,-4.60474516e-01,-1
7.34330974e+02,1.74991457e+02,-1.15684240e-05,6.50899833,4.64456484,1.48804665,-2.34509861,3.64519980e+02,7.46528418,-4.56394148e-01,-1
7.44808004e+02,1.74991336e+02,-1.15599199e-05,6.50883536,4.64539271,1.48630941,-2.34509861,3.65535441e+02,7.46664941,-4.52313781e-01,-1
7.55285034e+02,1.74991215e+02,-1.15514159e-05,6.50867240,4.64622059,1.48457217,-2.34509861,3.66550901e+02,7.46801465,-4.48233413e-01,-1
7.65762064e+02,1.74991094e+02,-1.15429118e-05,6.50850943,4.64704847,1.48283493,-2.34509861,3.67566361e+02,7.46937989,-4.44153045e-01,-1
7.76366200e+02,1.74990972e+02,-1.15340996e-05,6.50834665,4.64788256,1.48108535,-2.34509861,3.68581912e+02,7.47075690,-4.40037390e-01,-1
7.87714729e+02,1.74990842e+02,-1.15234830e-05,6.50818501,4.64875307,1.47926351,-2.34509862,3.69597995e+02,7.47220288,-4.35715076e-01,-1
7.99063258e+02,1.74990711e+02,-1.15128665e-05,6.50802337,4.64962358,1.47744167,-2.34509862,3.70614077e+02,7.47364886,-4.31392762e-01,-1
8.10411787e+02,1.74990581e+02,-1.15022499e-05,6.50786173,4.65049409,1.47561983,-2.34509862,3.71630160e+02,7.47509483,-4.27070449e-01,-1
8.21760315e+02,1.74990451e+02,-1.14916334e-05,6.50770009,4.65136460,1.47379800,-2.34509862,3.72646242e+02,7.47654081,-4.22748135e-01,-1
8.33108844e+02,1.74990321e+02,-1.14810169e-05,6.50753845,4.65223511,1.47197616,-2.34509862,3.73662325e+02,7.47798679,-4.18425821e-01,-1
8.45012696e+02,1.74990185e+02,-1.14702531e-05,6.50737883,4.65312946,1.47010764,-2.34509863,3.74710817e+02,7.47947906,-4.13964363e-01,-1
8.57309012e+02,1.74990044e+02,-1.14593853e-05,6.50722065,4.65404067,1.46820614,-2.34509863,3.75782214e+02,7.48100405,-4.09404566e-01,-1
8.69605329e+02,1.74989904e+02,-1.14485176e-05,6.50706246,4.65495187,1.46630464,-2.34509864,3.76853611e+02,7.48252905,-4.04844770e-01,-1
8.81901645e+02,1.74989764e+02,-1.14376498e-05,6.50690428,4.65586307,1.46440314,-2.34509864,3.77925007e+02,7.48405404,-4.00284974e-01,-1
8.94197961e+02,1.74989623e+02,-1.14267820e-05,6.50674609,4.65677428,1.46250164,-2.34509865,3.78996404e+02,7.48557903,-3.95725177e-01,-1
9.06494278e+02,1.74989483e+02,-1.14159142e-05,6.50658790,4.65768548,1.46060014,-2.34509865,3.80067801e+02,7.48710403,-3.91165381e-01,-1
9.19275833e+02,1.74989338e+02,-1.14040096e-05,6.50643125,4.65861565,1.45866147,-2.34509865,3.81132968e+02,7.48866609,-3.86494058e-01,-1
9.32705196e+02,1.74989186e+02,-1.13907207e-05,6.50627665,4.65957114,1.45667319,-2.34509866,3.82189817e+02,7.49027765,-3.81673844e-01,-1
9.46134559e+02,1.74989034e+02,-1.13774318e-05,6.50612205,4.66052663,1.45468491,-2.34509867,3.83246666e+02,7.49188921,-3.76853629e-01,-1
9.59563923e+02,1.74988882e+02,-1.13641430e-05,6.50596744,4.66148212,1.45269663,-2.34509867,3.84303515e+02,7.49350076,-3.72033415e-01,-1
9.72993286e+02,1.74988730e+02,-1.13508541e-05,6.50581284,4.66243761,1.45070835,-2.34509868,3.85360364e+02,7.49511232,-3.67213201e-01,-1
9.86422650e+02,1.74988578e+02,-1.13375652e-05,6.50565824,4.66339310,1.44872007,-2.34509868,3.86417213e+02,7.49672388,-3.62392986e-01,-1
9.99852013e+02,1.74988426e+02,-1.13242763e-05,6.50550364,4.66434859,1.44673178,-2.34509869,3.87474062e+02,7.49833544,-3.57572772e-01,-1
1.01404538e+03,1.74988266e+02,-1.13050873e-05,6.50534901,4.66533419,1.44468328,-2.34509869,3.88367930e+02,7.50000468,-3.52579723e-01,-1
1.02862795e+03,1.74988103e+02,-1.12828926e-05,6.50519436,4.66633512,1.44260410,-2.34509870,3.89178771e+02,7.50170332,-3.47498628e-01,-1
1.04321052e+03,1.74987939e+02,-1.12606979e-05,6.50503971,4.66733605,1.44052491,-2.34509870,3.89989612e+02,7.50340195,-3.42417533e-01,-1
1.05779309e+03,1.74987776e+02,-1.12385031e-05,6.50488507,4.66833698,1.43844573,-2.34509870,3.90800453e+02,7.50510059,-3.37336438e-01,-1
1.07237566e+03,1.74987613e+02,-1.12163084e-05,6.50473042,4.66933791,1.43636655,-2.34509871,3.91611295e+02,7.50679922,-3.32255343e-01,-1
1.08720692e+03,1.74987447e+02,-1.11936657e-05,6.50457588,4.67034722,1.43427066,-2.34509871,3.92414413e+02,7.50851417,-3.27125175e-01,-1
1.10283348e+03,1.74987274e+02,-1.11695901e-05,6.50442168,4.67138331,1.43212137,-2.34509871,3.93192836e+02,7.51028131,-3.21838069e-01,-1
1.11846005e+03,1.74987101e+02,-1.11455145e-05,6.50426747,4.67241941,1.42997207,-2.34509871,3.93971259e+02,7.51204845,-3.16550963e-01,-1
1.13408661e+03,1.74986928e+02,-1.11214389e-05,6.50411326,4.67345551,1.42782277,-2.34509872,3.94749682e+02,7.51381559,-3.11263858e-01,-1
1.14971317e+03,1.74986754e+02,-1.10973633e-05,6.50395906,4.67449160,1.42567347,-2.34509872,3.95528105e+02,7.51558273,-3.05976752e-01,-1
1.16581463e+03,1.74986577e+02,-1.10741991e-05,6.50380552,4.67553962,1.42350067,-2.34509872,3.96347658e+02,7.51737388,-3.00617457e-01,-1
1.18256140e+03,1.74986393e+02,-1.10522734e-05,6.50365289,4.67660384,1.42129591,-2.34509873,3.97223100e+02,7.51919764,-2.95160066e-01,-1
1.19930817e+03,1.74986210e+02,-1.10303476e-05,6.50350027,4.67766806,1.41909116,-2.34509873,3.98098541e+02,7.52102141,-2.89702674e-01,-1
1.21605494e+03,1.74986026e+02,-1.10084219e-05,6.50334764,4.67873228,1.41688641,-2.34509874,3.98973983e+02,7.52284517,-2.84245283e-01,-1
1.23280172e+03,1.74985842e+02,-1.09864961e-05,6.50319501,4.67979650,1.41468165,-2.34509875,3.99849425e+02,7.52466893,-2.78787892e-01,-1
1.24959327e+03,1.74985658e+02,-1.09644696e-05,6.50304238,4.68086157,1.41247519,-2.34509875,4.00721850e+02,7.52649444,-2.73325297e-01,-1
1.26768732e+03,1.74985463e+02,-1.09395122e-05,6.50288952,4.68195142,1.41021908,-2.34509876,4.01506527e+02,7.52837057,-2.67711349e-01,-1
1.28578137e+03,1.74985267e+02,-1.09145548e-05,6.50273666,4.68304126,1.40796296,-2.34509877,4.02291204e+02,7.53024670,-2.62097402e-01,-1
1.30387541e+03,1.74985071e+02,-1.08895975e-05,6.50258380,4.68413111,1.40570684,-2.34509879,4.03075882e+02,7.53212283,-2.56483455e-01,-1
1.32196946e+03,1.74984875e+02,-1.08646401e-05,6.50243094,4.68522095,1.40345072,-2.34509880,4.03860559e+02,7.53399896,-2.50869507e-01,-1
1.34006351e+03,1.74984680e+02,-1.08396827e-05,6.50227808,4.68631080,1.40119460,-2.34509881,4.04645236e+02,7.53587509,-2.45255560e-01,-1
1.35822073e+03,1.74984483e+02,-1.08140755e-05,6.50212500,4.68740179,1.39893607,-2.34509882,4.05406403e+02,7.53775350,-2.39634791e-01,-1
1.37768590e+03,1.74984277e+02,-1.07750143e-05,6.50196731,4.68851661,1.39662758,-2.34509882,4.05680802e+02,7.53967892,-2.33872798e-01,-1
1.39715107e+03,1.74984070e+02,-1.07359531e-05,6.50180962,4.68963143,1.39431910,-2.34509883,4.05955201e+02,7.54160434,-2.28110804e-01,-1
1.41661624e+03,1.74983863e+02,-1.06968920e-05,6.50165192,4.69074625,1.39201062,-2.34509883,4.06229600e+02,7.54352977,-2.22348811e-01,-1
1.43608141e+03,1.74983656e+02,-1.06578308e-05,6.50149423,4.69186107,1.38970213,-2.34509883,4.06504000e+02,7.54545519,-2.16586818e-01,-1
1.45584559e+03,1.74983447e+02,-1.06187371e-05,6.50133520,4.69297863,1.38738748,-2.34509884,4.06776442e+02,7.54738634,-2.10807660e-01,-1
1.47656208e+03,1.74983230e+02,-1.05795394e-05,6.50117189,4.69410495,1.38505320,-2.34509885,4.07042654e+02,7.54933571,-2.04973841e-01,-1
1.49727857e+03,1.74983013e+02,-1.05403417e-05,6.50100858,4.69523126,1.38271892,-2.34509885,4.07308865e+02,7.55128509,-1.99140022e-01,-1
1.51799506e+03,1.74982797e+02,-1.05011441e-05,6.50084527,4.69635758,1.38038463,-2.34509886,4.07575076e+02,7.55323446,-1.93306203e-01,-1
1.53871155e+03,1.74982580e+02,-1.04619464e-05,6.50068196,4.69748389,1.37805035,-2.34509887,4.07841288e+02,7.55518383,-1.87472384e-01,-1
1.56069948e+03,1.74982353e+02,-1.04276977e-05,6.50051109,4.69860539,1.37572191,-2.34509888,4.08286967e+02,7.55712627,-1.81660301e-01,-1
1.58278209e+03,1.74982126e+02,-1.03938175e-05,6.50033965,4.69972654,1.37339390,-2.34509890,4.08746009e+02,7.55906820,-1.75849836e-01,-1
1.60486470e+03,1.74981899e+02,-1.03599373e-05,6.50016821,4.70084768,1.37106589,-2.34509892,4.09205052e+02,7.56101012,-1.70039371e-01,-1
1.62694732e+03,1.74981671e+02,-1.03260571e-05,6.49999678,4.70196883,1.36873789,-2.34509893,4.09664094e+02,7.56295205,-1.64228906e-01,-1
1.64916450e+03,1.74981443e+02,-1.02919660e-05,6.49982407,4.70308809,1.36641301,-2.34509895,4.10111779e+02,7.56489047,-1.58428996e-01,-1
1.67291647e+03,1.74981203e+02,-1.02554693e-05,6.49963688,4.70418585,1.36412388,-2.34509898,4.10429932e+02,7.56678897,-1.52749463e-01,-1
1.69666845e+03,1.74980963e+02,-1.02189726e-05,6.49944968,4.70528362,1.36183475,-2.34509901,4.10748085e+02,7.56868746,-1.47069930e-01,-1
1.72042043e+03,1.74980724e+02,-1.01824759e-05,6.49926249,4.70638139,1.35954562,-2.34509904,4.11066238e+02,7.57058595,-1.41390397e-01,-1
1.74417240e+03,1.74980484e+02,-1.01459792e-05,6.49907530,4.70747915,1.35725649,-2.34509907,4.11384391e+02,7.57248444,-1.35710864e-01,-1
1.76792438e+03,1.74980244e+02,-1.01094825e-05,6.49888810,4.70857692,1.35496736,-2.34509910,4.11702544e+02,7.57438293,-1.30031331e-01,-1
1.79284711e+03,1.74979996e+02,-1.00628235e-05,6.49868557,4.70965413,1.35271168,-2.34509912,4.11564325e+02,7.57624125,-1.24472905e-01,-1
1.81834762e+03,1.74979745e+02,-1.00111492e-05,6.49847547,4.71072119,1.35047250,-2.34509912,4.11200880e+02,7.57807973,-1.18974247e-01,-1
1.84384814e+03,1.74979493e+02,-9.95947493e-06,6.49826537,4.71178825,1.34823333,-2.34509913,4.10837434e+02,7.57991821,-1.13475590e-01,-1
1.86934865e+03,1.74979242e+02,-9.90780064e-06,6.49805527,4.71285532,1.34599415,-2.34509913,4.10473989e+02,7.58175670,-1.07976932e-01,-1
1.89513552e+03,1.74978988e+02,-9.85784230e-06,6.49784082,4.71391265,1.34377227,-2.34509915,4.10164107e+02,7.58357653,-1.02534481e-01,-1
1.92250978e+03,1.74978724e+02,-9.81739645e-06,6.49760227,4.71491602,1.34164625,-2.34509919,4.10151156e+02,7.58529301,-9.74036129e-02,-1
1.94988405e+03,1.74978459e+02,-9.77695059e-06,6.49736372,4.71591939,1.33952024,-2.34509923,4.10138205e+02,7.58700948,-9.22727447e-02,-1
1.97725831e+03,1.74978195e+02,-9.73650474e-06,6.49712518,4.71692276,1.33739422,-2.34509927,4.10125255e+02,7.58872595,-8.71418764e-02,-1
2.00463257e+03,1.74977930e+02,-9.69605889e-06,6.49688663,4.71792613,1.33526821,-2.34509931,4.10112304e+02,7.59044242,-8.20110082e-02,-1
2.03224113e+03,1.74977664e+02,-9.65551168e-06,6.49664502,4.71892144,1.33315679,-2.34509935,4.10080756e+02,7.59214389,-7.69255102e-02,-1
2.06187397e+03,1.74977385e+02,-9.61408882e-06,6.49637696,4.71984707,1.33117150,-2.34509940,4.09888533e+02,7.59371577,-7.22320032e-02,-1
2.09150681e+03,1.74977106e+02,-9.57266596e-06,6.49610890,4.72077270,1.32918620,-2.34509946,4.09696310e+02,7.59528766,-6.75384963e-02,-1
2.12113965e+03,1.74976826e+02,-9.53124310e-06,6.49584083,4.72169833,1.32720091,-2.34509951,4.09504087e+02,7.59685955,-6.28449893e-02,-1
2.15077249e+03,1.74976547e+02,-9.48982024e-06,6.49557277,4.72262396,1.32521561,-2.34509956,4.09311864e+02,7.59843143,-5.81514824e-02,-1
2.18040533e+03,1.74976268e+02,-9.44839738e-06,6.49530471,4.72354959,1.32323032,-2.34509961,4.09119640e+02,7.60000332,-5.34579754e-02,-1
2.21122971e+03,1.74975981e+02,-9.40145648e-06,6.49502870,4.72445084,1.32128983,-2.34509965,4.08629588e+02,7.60153274,-4.89116844e-02,-1
2.24321441e+03,1.74975688e+02,-9.34914205e-06,6.49474495,4.72532834,1.31939296,-2.34509966,4.07849507e+02,7.60302081,-4.45087536e-02,-1
2.27519911e+03,1.74975394e+02,-9.29682763e-06,6.49446120,4.72620583,1.31749609,-2.34509968,4.07069425e+02,7.60450888,-4.01058228e-02,-1
2.30718381e+03,1.74975101e+02,-9.24451321e-06,6.49417745,4.72708333,1.31559922,-2.34509969,4.06289344e+02,7.60599695,-3.57028919e-02,-1
2.33916851e+03,1.74974808e+02,-9.19219878e-06,6.49389371,4.72796083,1.31370235,-2.34509971,4.05509263e+02,7.60748502,-3.12999611e-02,-1
2.37264491e+03,1.74974505e+02,-9.14692760e-06,6.49362060,4.72883179,1.31182386,-2.34509975,4.04989211e+02,7.60897234,-2.68960208e-02,-1
2.40706682e+03,1.74974197e+02,-9.10612068e-06,6.49335424,4.72969862,1.30995703,-2.34509981,4.04633976e+02,7.61045920,-2.24914407e-02,-1
2.44148872e+03,1.74973889e+02,-9.06531376e-06,6.49308788,4.73056545,1.30809019,-2.34509987,4.04278740e+02,7.61194606,-1.80868606e-02,-1
2.47591062e+03,1.74973581e+02,-9.02450684e-06,6.49282152,4.73143228,1.30622335,-2.34509992,4.03923505e+02,7.61343291,-1.36822805e-02,-1
2.51033253e+03,1.74973273e+02,-8.98369991e-06,6.49255516,4.73229911,1.30435651,-2.34509998,4.03568270e+02,7.61491977,-9.27770045e-03,-1
2.54517975e+03,1.74972963e+02,-8.94295405e-06,6.49229880,4.73317680,1.30247295,-2.34510004,4.03216502e+02,7.61643189,-4.79702113e-03,-1
2.58235577e+03,1.74972639e+02,-8.90254251e-06,6.49209717,4.73411395,1.30049783,-2.34510011,4.02883722e+02,7.61808234,1.00335395e-04,-1
2.61953179e+03,1.74972315e+02,-8.86213097e-06,6.49189554,4.73505111,1.29852270,-2.34510018,4.02550943e+02,7.61973280,4.99769192e-03,-1
2.65670781e+03,1.74971992e+02,-8.82171943e-06,6.49169392,4.73598826,1.29654758,-2.34510025,4.02218163e+02,7.62138325,9.89504844e-03,-1
2.69388383e+03,1.74971668e+02,-8.78130789e-06,6.49149229,4.73692542,1.29457246,-2.34510032,4.01885383e+02,7.62303371,1.47924050e-02,-1
2.73105985e+03,1.74971345e+02,-8.74089635e-06,6.49129066,4.73786257,1.29259733,-2.34510039,4.01552604e+02,7.62468416,1.96897615e-02,-1
2.76850920e+03,1.74971020e+02,-8.70043356e-06,6.49109920,4.73881502,1.29059670,-2.34510046,4.01227057e+02,7.62636679,2.46837626e-02,-1
2.80870681e+03,1.74970681e+02,-8.65945553e-06,6.49100997,4.73992124,1.28833966,-2.34510055,4.00974232e+02,7.62837293,3.06495028e-02,-1
2.84890442e+03,1.74970342e+02,-8.61847749e-06,6.49092074,4.74102745,1.28608262,-2.34510064,4.00721408e+02,7.63037907,3.66152430e-02,-1
2.88910204e+03,1.74970003e+02,-8.57749945e-06,6.49083151,4.74213366,1.28382558,-2.34510073,4.00468584e+02,7.63238521,4.25809832e-02,-1
2.92929965e+03,1.74969665e+02,-8.53652142e-06,6.49074228,4.74323988,1.28156854,-2.34510082,4.00215760e+02,7.63439136,4.85467234e-02,-1
2.96949726e+03,1.74969326e+02,-8.49554338e-06,6.49065306,4.74434609,1.27931150,-2.34510091,3.99962935e+02,7.63639750,5.45124636e-02,-1
