star_age,star_mass,star_mdot,log_L,log_Teff,log_R,log_surf_z,v_wind_Km_per_s,log_center_T,log_center_Rho,phase,x
4.39710627e+02,2.49999984,-3.37465086e-10,2.74797351,3.66271448,1.57123494,-2.84509855,6.21534934e-05,5.71587473,-3.31994355,-1,-1.0
4.61008107e+02,2.49999983,-3.33404392e-10,2.74444400,3.66295211,1.56899492,-2.84509855,6.21847562e-05,5.71803606,-3.31347320,-1,-0.99999064473601
4.83311589e+02,2.49999982,-3.29163977e-10,2.74075460,3.66318654,1.56668138,-2.84509855,6.21900039e-05,5.72026877,-3.30678981,-1,-0.9999808475693027
5.06688371e+02,2.49999981,-3.24660800e-10,2.73696735,3.66343508,1.56429067,-2.84509855,6.21677124e-05,5.72257630,-3.29988220,-1,-0.9999705789381385
5.31186775e+02,2.49999981,-3.20090772e-10,2.73317358,3.66372172,1.56182050,-2.84509855,6.21727690e-05,5.72495997,-3.29274527,-1,-0.9999598176162942
5.56871272e+02,2.49999980,-3.15368854e-10,2.72912295,3.66398425,1.55927013,-2.84509855,6.21380825e-05,5.72742205,-3.28537381,-1,-0.9999485352838358
5.83798315e+02,2.49999979,-3.10486012e-10,2.72493676,3.66425390,1.55663773,-2.84509855,6.20853944e-05,5.72996340,-3.27776425,-1,-0.9999367071428663
6.12013851e+02,2.49999978,-3.05569458e-10,2.72061291,3.66453022,1.55392317,-2.84509855,6.20383493e-05,5.73258450,-3.26991672,-1,-0.9999243130104197
6.41574763e+02,2.49999977,-3.00540007e-10,2.71614695,3.66481260,1.55112543,-2.84509855,6.19798526e-05,5.73528632,-3.26182645,-1,-0.9999113278997144
6.72539541e+02,2.49999976,-2.95419010e-10,2.71167865,3.66513718,1.54824212,-2.84509855,6.19437069e-05,5.73807062,-3.25349018,-1,-0.9998977261180678
7.04949015e+02,2.49999975,-2.90266236e-10,2.70711418,3.66548041,1.54527342,-2.84509855,6.19217585e-05,5.74093777,-3.24490485,-1,-0.9998834897302394
7.38919071e+02,2.49999974,-2.85003869e-10,2.70226876,3.66579715,1.54221722,-2.84509855,6.18581917e-05,5.74389039,-3.23606378,-1,-0.9998685678314216
7.74645093e+02,2.49999973,-2.79768466e-10,2.69724026,3.66611517,1.53906693,-2.84509855,6.18048646e-05,5.74693440,-3.22694852,-1,-0.999852874596019
8.11998048e+02,2.49999972,-2.74473444e-10,2.69220355,3.66647376,1.53583140,-2.84509855,6.17751026e-05,5.75006071,-3.21758677,-1,-0.9998364667038726
8.51027233e+02,2.49999971,-2.69188902e-10,2.68699172,3.66683078,1.53251146,-2.84509855,6.17480616e-05,5.75326934,-3.20797814,-1,-0.9998193225004743
8.92161672e+02,2.49999970,-2.63746207e-10,2.68159161,3.66719144,1.52909007,-2.84509855,6.16886347e-05,5.75657658,-3.19807512,-1,-0.9998012535300644
9.35097077e+02,2.49999969,-2.58285322e-10,2.67599820,3.66754501,1.52558623,-2.84509855,6.16157121e-05,5.75996385,-3.18792807,-1,-0.999782393456089
9.80148960e+02,2.49999968,-2.52831939e-10,2.67024581,3.66790528,1.52198950,-2.84509855,6.15476386e-05,5.76344119,-3.17751118,-1,-0.9997626036847774
1.02734272e+03,2.49999967,-2.47337025e-10,2.66446059,3.66830304,1.51830136,-2.84509855,6.14983165e-05,5.76700707,-3.16682826,-1,-0.9997418730592067
1.07677498e+03,2.49999966,-2.41837813e-10,2.65845847,3.66869200,1.51452238,-2.84509855,6.14340978e-05,5.77066159,-3.15587952,-1,-0.9997201591361548
1.12856186e+03,2.49999964,-2.36308223e-10,2.65242110,3.66911836,1.51065097,-2.84509854,6.13884745e-05,5.77440544,-3.14466293,-1,-0.9996974109080254
1.18288163e+03,2.49999963,-2.30872064e-10,2.64611260,3.66952354,1.50668637,-2.84509854,6.13393265e-05,5.77824041,-3.13317395,-1,-0.9996735500668261
1.23964811e+03,2.49999962,-2.25325086e-10,2.63964683,3.66993228,1.50263601,-2.84509854,6.12539376e-05,5.78215934,-3.12143264,-1,-0.9996486144685215
1.29929548e+03,2.49999961,-2.19879522e-10,2.63323589,3.67040469,1.49848571,-2.84509854,6.12405529e-05,5.78617473,-3.10940317,-1,-0.9996224133924947
1.36172975e+03,2.49999959,-2.14410765e-10,2.62647045,3.67083207,1.49424824,-2.84509854,6.11666436e-05,5.79027575,-3.09711567,-1,-0.9995949881253798
1.42706912e+03,2.49999958,-2.08937522e-10,2.61955782,3.67126658,1.48992290,-2.84509854,6.10820720e-05,5.79446269,-3.08457211,-1,-0.9995662867459073
1.49547679e+03,2.49999956,-2.03523057e-10,2.61258013,3.67172920,1.48550883,-2.84509854,6.10221785e-05,5.79873552,-3.07176923,-1,-0.9995362375658263
1.56727727e+03,2.49999955,-1.98067474e-10,2.60535189,3.67217545,1.48100219,-2.84509853,6.09139216e-05,5.80309907,-3.05869492,-1,-0.9995046980388491
1.64247991e+03,2.49999954,-1.92737640e-10,2.59809288,3.67265808,1.47640744,-2.84509853,6.08552243e-05,5.80754818,-3.04536337,-1,-0.999471664057836
1.72121543e+03,2.49999952,-1.87443069e-10,2.59064093,3.67313575,1.47172611,-2.84509852,6.07793001e-05,5.81208198,-3.03177850,-1,-0.9994370782019043
1.80371007e+03,2.49999951,-1.82190522e-10,2.58326041,3.67367595,1.46695546,-2.84509852,6.07488743e-05,5.81670254,-3.01793189,-1,-0.9994008410914594
1.89009583e+03,2.49999949,-1.77069204e-10,2.57564322,3.67420034,1.46209808,-2.84509851,6.07203220e-05,5.82140869,-3.00382709,-1,-0.9993628947433574
1.98056453e+03,2.49999947,-1.71941497e-10,2.56774959,3.67469657,1.45715881,-2.84509851,6.06339745e-05,5.82619593,-2.98947856,-1,-0.9993231548975479
2.07531040e+03,2.49999946,-1.66847632e-10,2.55971657,3.67519899,1.45213746,-2.84509851,6.05318210e-05,5.83106470,-2.97488572,-1,-0.9992815362353488
2.17454997e+03,2.49999944,-1.61838949e-10,2.55166482,3.67573858,1.44703240,-2.84509851,6.04600441e-05,5.83601555,-2.96004620,-1,-0.9992379436424409
2.27844758e+03,2.49999943,-1.56906822e-10,2.54340906,3.67626692,1.44184784,-2.84509851,6.03696040e-05,5.84104499,-2.94497079,-1,-0.9991923049298101
2.38730850e+03,2.49999941,-1.52042115e-10,2.53497973,3.67679139,1.43658424,-2.84509850,6.02612015e-05,5.84615203,-2.92966565,-1,-0.999144486002651
2.50144852e+03,2.49999939,-1.47317283e-10,2.52674394,3.67740727,1.43123459,-2.84509849,6.02526385e-05,5.85134223,-2.91411033,-1,-0.9990943481450771
2.62088218e+03,2.49999938,-1.42655283e-10,2.51810998,3.67795972,1.42581271,-2.84509849,6.01680483e-05,5.85660382,-2.89834110,-1,-0.9990418849701573
2.74586215e+03,2.49999936,-1.38058118e-10,2.50931595,3.67850810,1.42031892,-2.84509849,6.00623571e-05,5.86193568,-2.88235826,-1,-0.9989869854884904
2.87683186e+03,2.49999934,-1.33544082e-10,2.50039021,3.67906006,1.41475213,-2.84509848,5.99471761e-05,5.86733949,-2.86615674,-1,-0.9989294549162471
3.01404597e+03,2.49999932,-1.29093432e-10,2.49135957,3.67962152,1.40911390,-2.84509848,5.98186326e-05,5.87281394,-2.84974451,-1,-0.9988691813898861
3.15758570e+03,2.49999930,-1.24736667e-10,2.48218261,3.68018022,1.40340802,-2.84509848,5.96784977e-05,5.87835606,-2.83312825,-1,-0.9988061292322035
3.30812917e+03,2.49999929,-1.20552153e-10,2.47325991,3.68083593,1.39763526,-2.84509848,5.96562402e-05,5.88386706,-2.81648618,-1,-0.9987400005679756
3.46565966e+03,2.49999927,-1.16427662e-10,2.46388682,3.68141348,1.39179361,-2.84509848,5.95369531e-05,5.88950813,-2.79953424,-1,-0.9986708027417341
3.63050996e+03,2.49999925,-1.12379101e-10,2.45437755,3.68198853,1.38588887,-2.84509847,5.93969009e-05,5.89523766,-2.78234518,-1,-0.9985983895700664
3.80333147e+03,2.49999923,-1.08424577e-10,2.44488019,3.68259983,1.37991759,-2.84509847,5.92797354e-05,5.90103998,-2.76494791,-1,-0.998522474914943
3.98410990e+03,2.49999921,-1.04585813e-10,2.43527111,3.68321255,1.37388760,-2.84509847,5.91668125e-05,5.90690076,-2.74737278,-1,-0.9984430650534782
4.17360618e+03,2.49999919,-1.00868397e-10,2.42559836,3.68384173,1.36779288,-2.84509847,5.90747938e-05,5.91282635,-2.72960363,-1,-0.9983598257348114
4.37184966e+03,2.49999917,-9.72225618e-11,2.41567963,3.68443623,1.36164451,-2.84509847,5.89277776e-05,5.91880546,-2.71167046,-1,-0.9982727440664781
4.57951317e+03,2.49999915,-9.36644361e-11,2.40576602,3.68506082,1.35543853,-2.84509847,5.87951846e-05,5.92484376,-2.69355901,-1,-0.9981815244969733
4.79695754e+03,2.49999913,-9.01967098e-11,2.39567969,3.68567009,1.34917682,-2.84509847,5.86359086e-05,5.93093930,-2.67527838,-1,-0.998086008525859
5.02442091e+03,2.49999911,-8.68505951e-11,2.38547527,3.68627448,1.34286583,-2.84509847,5.84810638e-05,5.93708422,-2.65685113,-1,-0.9979860915462726
5.26310019e+03,2.49999909,-8.36149704e-11,2.37564110,3.68700236,1.33649298,-2.84509847,5.84467880e-05,5.94328919,-2.63824501,-1,-0.997881247796057
5.51271413e+03,2.49999907,-8.04758729e-11,2.36530175,3.68762652,1.33007499,-2.84509847,5.83090808e-05,5.94953967,-2.61949676,-1,-0.9977716008188428
5.77391570e+03,2.49999905,-7.74516676e-11,2.35487770,3.68825283,1.32361034,-2.84509847,5.81839932e-05,5.95583717,-2.60060746,-1,-0.9976568637869521
6.04757498e+03,2.49999903,-7.44672304e-11,2.34436365,3.68887857,1.31710184,-2.84509847,5.80109132e-05,5.96217929,-2.58158543,-1,-0.9975366545036138
6.33414352e+03,2.49999901,-7.15962746e-11,2.33381014,3.68951701,1.31054821,-2.84509847,5.78600956e-05,5.96856748,-2.56242610,-1,-0.9974107746181566
6.63401549e+03,2.49999899,-6.88094297e-11,2.32321039,3.69016532,1.30395171,-2.84509847,5.77092178e-05,5.97499958,-2.54313602,-1,-0.9972790509850062
6.94801585e+03,2.49999897,-6.61096797e-11,2.31244364,3.69079191,1.29731516,-2.84509847,5.75283689e-05,5.98147276,-2.52372273,-1,-0.9971411212270841
7.27706306e+03,2.49999895,-6.35016929e-11,2.30177875,3.69146627,1.29063399,-2.84509847,5.73916721e-05,5.98799043,-2.50417384,-1,-0.9969965818959181
7.62137448e+03,2.49999893,-6.10053478e-11,2.29093011,3.69211177,1.28391868,-2.84509847,5.72457089e-05,5.99454229,-2.48452119,-1,-0.9968453375125982
7.98188167e+03,2.49999890,-5.85745205e-11,2.28018745,3.69280320,1.27716447,-2.84509847,5.71233865e-05,6.00113361,-2.46474536,-1,-0.9966869788742644
8.35915875e+03,2.49999888,-5.62409367e-11,2.26918142,3.69344650,1.27037486,-2.84509847,5.69646717e-05,6.00776207,-2.44486053,-1,-0.9965212537893824
8.75443342e+03,2.49999886,-5.39694746e-11,2.25809085,3.69408368,1.26355522,-2.84509847,5.67750559e-05,6.01442293,-2.42488172,-1,-0.9963476229707876
9.16818668e+03,2.49999884,-5.17818405e-11,2.24694369,3.69472220,1.25670460,-2.84509847,5.65869047e-05,6.02111592,-2.40480867,-1,-0.996165875131418
9.60161116e+03,2.49999882,-4.96953945e-11,2.23604093,3.69544070,1.24981622,-2.84509847,5.65025983e-05,6.02784644,-2.38462215,-1,-0.9959754863891759
1.00550380e+04,2.49999880,-4.76625848e-11,2.22477899,3.69608185,1.24290295,-2.84509847,5.63136544e-05,6.03460234,-2.36435704,-1,-0.9957763112854384
1.05301039e+04,2.49999877,-4.57288557e-11,2.21380981,3.69681322,1.23595562,-2.84509847,5.62439375e-05,6.04139187,-2.34398822,-1,-0.9955676308731481
1.10273168e+04,2.49999875,-4.38459728e-11,2.20260031,3.69749601,1.22898529,-2.84509847,5.60982936e-05,6.04820609,-2.32354748,-1,-0.9953492220314106
1.15477411e+04,2.49999873,-4.20465899e-11,2.19121988,3.69814647,1.22199416,-2.84509847,5.59358445e-05,6.05504269,-2.30303922,-1,-0.9951206172052384
1.20928400e+04,2.49999871,-4.02996415e-11,2.17979298,3.69879528,1.21498308,-2.84509847,5.57481777e-05,6.06190123,-2.28246652,-1,-0.9948811736602672
1.26635092e+04,2.49999868,-3.86191570e-11,2.16832236,3.69944157,1.20795520,-2.84509847,5.55558560e-05,6.06877796,-2.26183786,-1,-0.9946304979457246
1.32610470e+04,2.49999866,-3.70033123e-11,2.15687314,3.70010103,1.20091165,-2.84509847,5.53748974e-05,6.07567096,-2.24115832,-1,-0.9943680197622494
1.38867344e+04,2.49999864,-3.54559820e-11,2.14542424,3.70076715,1.19385496,-2.84509847,5.52081411e-05,6.08257845,-2.22043299,-1,-0.9940931764097866
1.45417715e+04,2.49999862,-3.39729379e-11,2.13391609,3.70142301,1.18678919,-2.84509847,5.50348633e-05,6.08949662,-2.19967773,-1,-0.9938054407249197
1.52276730e+04,2.49999859,-3.25496137e-11,2.12239188,3.70207691,1.17971926,-2.84509847,5.48601142e-05,6.09642091,-2.17890635,-1,-0.9935041473510731
1.59459292e+04,2.49999857,-3.11831143e-11,2.11087316,3.70273116,1.17265142,-2.84509847,5.46820916e-05,6.10334534,-2.15813707,-1,-0.9931886416497672
1.66981609e+04,2.49999855,-2.98851871e-11,2.09940152,3.70339308,1.16559174,-2.84509847,5.45334822e-05,6.11026383,-2.13738437,-1,-0.992858211658278
1.74858019e+04,2.49999853,-2.86324129e-11,2.08787968,3.70403255,1.15855188,-2.84509847,5.43438267e-05,6.11716479,-2.11668206,-1,-0.9925122275566688
1.83109306e+04,2.49999850,-2.74356856e-11,2.07646858,3.70468757,1.15153631,-2.84509847,5.41741891e-05,6.12404309,-2.09604751,-1,-0.9921497763739835
1.91749751e+04,2.49999848,-2.63025672e-11,2.06500556,3.70530732,1.14456530,-2.84509847,5.39901362e-05,6.13087870,-2.07554231,-1,-0.9917702307941026
2.00800462e+04,2.49999846,-2.52149354e-11,2.05360922,3.70591612,1.13764952,-2.84509847,5.37828878e-05,6.13766118,-2.05519566,-1,-0.9913726636138442
2.10290855e+04,2.49999843,-2.41815560e-11,2.04268074,3.70660681,1.13080390,-2.84509847,5.36686399e-05,6.14437600,-2.03505118,-1,-0.9909557826876324
2.20234322e+04,2.49999841,-2.32231039e-11,2.03161165,3.70721316,1.12405666,-2.84509847,5.35244344e-05,6.15099590,-2.01519074,-1,-0.990518999750117
2.30658518e+04,2.49999839,-2.23059901e-11,2.02071392,3.70780008,1.11743395,-2.84509847,5.33448121e-05,6.15749530,-1.99569137,-1,-0.9900611000105074
2.41587992e+04,2.49999836,-2.14433805e-11,2.01006875,3.70837308,1.11096537,-2.84509847,5.31674515e-05,6.16384465,-1.97664380,-1,-0.9895810051141077
2.53047614e+04,2.49999834,-2.06348351e-11,1.99975702,3.70893757,1.10468053,-2.84509847,5.29993318e-05,6.17001477,-1.95813335,-1,-0.9890776226057757
2.65065223e+04,2.49999831,-1.98895686e-11,1.98985206,3.70949572,1.09861175,-2.84509847,5.28696114e-05,6.17597398,-1.94025593,-1,-0.988549729612222
2.77688716e+04,2.49999829,-1.91962987e-11,1.98025394,3.70999785,1.09280843,-2.84509847,5.26979248e-05,6.18167374,-1.92315922,-1,-0.9879952221799305
2.90920429e+04,2.49999827,-1.85599337e-11,1.97130568,3.71052755,1.08727490,-2.84509847,5.25964242e-05,6.18710918,-1.90685470,-1,-0.9874139976963071
3.04828918e+04,2.49999824,-1.79774053e-11,1.96271787,3.71098923,1.08205763,-2.84509847,5.24565933e-05,6.19223502,-1.89147778,-1,-0.9868030447277076
3.19415957e+04,2.49999821,-1.74424491e-11,1.95460234,3.71141197,1.07715439,-2.84509847,5.23019391e-05,6.19705276,-1.87702340,-1,-0.9861622853483007
3.34723218e+04,2.49999819,-1.69604546e-11,1.94700918,3.71180996,1.07256182,-2.84509847,5.21754756e-05,6.20156606,-1.86348138,-1,-0.9854898890478057
3.50790698e+04,2.49999816,-1.65188866e-11,1.93990141,3.71218479,1.06825828,-2.84509847,5.20534688e-05,6.20579593,-1.85078946,-1,-0.9847840988930366
3.67651990e+04,2.49999813,-1.61118842e-11,1.93317984,3.71253164,1.06420380,-2.84509847,5.19275526e-05,6.20978179,-1.83883106,-1,-0.9840434392569092
3.85338696e+04,2.49999811,-1.57387913e-11,1.92676456,3.71286030,1.06033883,-2.84509847,5.18248186e-05,6.21358199,-1.82743027,-1,-0.9832665219702472
4.03863374e+04,2.49999808,-1.53852951e-11,1.92053872,3.71317739,1.05659174,-2.84509847,5.17245543e-05,6.21726686,-1.81637459,-1,-0.9824527954025051
4.23308180e+04,2.49999805,-1.50447691e-11,1.91457399,3.71353965,1.05288484,-2.84509847,5.16802626e-05,6.22091260,-1.80543887,-1,-0.98159865071795
4.43692202e+04,2.49999802,-1.47150435e-11,1.90838025,3.71386990,1.04912747,-2.84509847,5.16245843e-05,6.22460858,-1.79435146,-1,-0.9807032494451808
4.64995173e+04,2.49999799,-1.43766359e-11,1.90193702,3.71420176,1.04524214,-2.84509847,5.15410374e-05,6.22843066,-1.78288600,-1,-0.9797674818450886
4.87348048e+04,2.49999796,-1.40253589e-11,1.89509096,3.71455338,1.04111586,-2.84509847,5.14489291e-05,6.23248998,-1.77071008,-1,-0.9787855955066097
5.10727692e+04,2.49999792,-1.36537907e-11,1.88770659,3.71493657,1.03665731,-2.84509847,5.13481431e-05,6.23687642,-1.75755277,-1,-0.9777586066721936
5.35157106e+04,2.49999789,-1.32572045e-11,1.87962385,3.71536123,1.03176662,-2.84509847,5.12415818e-05,6.24168819,-1.74311724,-1,-0.9766855049855584
5.60673531e+04,2.49999786,-1.28265567e-11,1.87058389,3.71581986,1.02632937,-2.84509847,5.10973387e-05,6.24703831,-1.72706601,-1,-0.9755646545752948
5.87283829e+04,2.49999783,-1.23566741e-11,1.86046230,3.71633330,1.02024170,-2.84509847,5.09201818e-05,6.25302948,-1.70909142,-1,-0.974395754016908
6.15015152e+04,2.49999779,-1.18476635e-11,1.84911426,3.71691801,1.01339825,-2.84509847,5.07251741e-05,6.25976623,-1.68888100,-1,-0.9731776106146993
6.43849737e+04,2.49999776,-1.13036935e-11,1.83639548,3.71756452,1.00574585,-2.84509847,5.05026426e-05,6.26730096,-1.66627699,-1,-0.9719110046372934
6.73813712e+04,2.49999773,-1.07293865e-11,1.82235109,3.71827636,9.97299973e-01,-2.84509847,5.02443158e-05,6.27561794,-1.64132506,-1,-0.9705947883698548
7.04955535e+04,2.49999769,-1.01438767e-11,1.80727179,3.71905983,9.88193392e-01,-2.84509847,4.99915288e-05,6.28458675,-1.61441526,-1,-0.9692268332160311
7.37358102e+04,2.49999766,-9.56392388e-12,1.79133088,3.71984158,9.78659441e-01,-2.84509847,4.96844827e-05,6.29385054,-1.58607280,-1,-0.9678034978343879
7.71161702e+04,2.49999763,-9.00872194e-12,1.77523511,3.72065319,9.68988321e-01,-2.84509847,4.93906583e-05,6.30179970,-1.55500815,-1,-0.966318619802752
8.06519757e+04,2.49999760,-8.49084533e-12,1.75915654,3.72143710,9.59381217e-01,-2.84509847,4.90889996e-05,6.31005000,-1.52392473,-1,-0.964765459810595
8.43583265e+04,2.49999757,-8.01190544e-12,1.74346027,3.72226303,9.49881234e-01,-2.84509847,4.88680656e-05,6.31818146,-1.49336419,-1,-0.9631373850255259
8.82379849e+04,2.49999754,-7.56362227e-12,1.72783449,3.72304130,9.40511794e-01,-2.84509847,4.86003624e-05,6.32624431,-1.46305998,-1,-0.961433182062406
9.23012029e+04,2.49999751,-7.14522548e-12,1.71241642,3.72380894,9.31267483e-01,-2.84509847,4.83332103e-05,6.33422735,-1.43295360,-1,-0.9596483475637291
9.65549618e+04,2.49999748,-6.75597565e-12,1.69711396,3.72454298,9.22148172e-01,-2.84509847,4.80542889e-05,6.34210949,-1.40298245,-1,-0.9577798148800841
1.01011358e+05,2.49999745,-6.39084853e-12,1.68208000,3.72528574,9.13145678e-01,-2.84509847,4.77877084e-05,6.34989428,-1.37310542,-1,-0.9558222704713094
1.05679496e+05,2.49999742,-6.05161678e-12,1.66723405,3.72601671,9.04260751e-01,-2.84509847,4.75329355e-05,6.35758608,-1.34331900,-1,-0.9537717150379103
1.10567207e+05,2.49999739,-5.73287182e-12,1.65253527,3.72672524,8.95494299e-01,-2.84509847,4.72588546e-05,6.36518480,-1.31360248,-1,-0.9516247085980976
1.15684629e+05,2.49999737,-5.43482717e-12,1.63800598,3.72741850,8.86843140e-01,-2.84509847,4.69855401e-05,6.37269589,-1.28393113,-1,-0.9493767978707163
1.21045768e+05,2.49999734,-5.15676239e-12,1.62377057,3.72813138,8.78299674e-01,-2.84509848,4.67534889e-05,6.38013144,-1.25426241,-1,-0.9470218304927901
1.26662645e+05,2.49999731,-4.89538219e-12,1.60969907,3.72882900,8.69868685e-01,-2.84509848,4.65102008e-05,6.38749246,-1.22459138,-1,-0.9445545260448315
1.32541773e+05,2.49999728,-4.65081045e-12,1.59575173,3.72950229,8.61548430e-01,-2.84509848,4.62615175e-05,6.39478711,-1.19490311,-1,-0.9419720235858107
1.38700664e+05,2.49999725,-4.42154885e-12,1.58205579,3.73018443,8.53336191e-01,-2.84509848,4.60361570e-05,6.40202480,-1.16516344,-1,-0.9392666306853088
1.45153194e+05,2.49999723,-4.20701659e-12,1.56857022,3.73086522,8.45231828e-01,-2.84509848,4.58264497e-05,6.40921282,-1.13535624,-1,-0.936432252084961
1.51908075e+05,2.49999720,-4.00511321e-12,1.55529620,3.73154538,8.37234501e-01,-2.84509848,4.56256570e-05,6.41635850,-1.10546727,-1,-0.9334650608972723
1.58987385e+05,2.49999717,-3.81617012e-12,1.54218164,3.73220888,8.29350224e-01,-2.84509848,4.54269020e-05,6.42346734,-1.07547817,-1,-0.9303553590021664
1.66398542e+05,2.49999714,-3.63836334e-12,1.52935241,3.73289005,8.21573261e-01,-2.84509848,4.52574716e-05,6.43054925,-1.04536720,-1,-0.9270998879226644
1.74167984e+05,2.49999712,-3.47245001e-12,1.51675341,3.73357216,8.13909542e-01,-2.84509848,4.51118332e-05,6.43761342,-1.01510853,-1,-0.9236870343378777
1.82300601e+05,2.49999709,-3.31590209e-12,1.50435250,3.73424668,8.06360035e-01,-2.84509848,4.49664734e-05,6.44466634,-9.84697115e-01,-1,-0.9201146502358859
1.90826420e+05,2.49999706,-3.16946462e-12,1.49230826,3.73495228,7.98926714e-01,-2.84509848,4.48742922e-05,6.45171937,-9.54095834e-01,-1,-0.9163695457692598
1.99755514e+05,2.49999703,-3.03272544e-12,1.48045875,3.73564652,7.91613480e-01,-2.84509848,4.47941157e-05,6.45878018,-9.23300141e-01,-1,-0.9124472962091501
