star_age,star_mass,star_mdot,log_L,log_Teff,log_R,log_surf_z,v_wind_Km_per_s,log_center_T,log_center_Rho,phase,x
3.02157525e+02,3.99999974,-7.58480203e-10,3.10768244,3.65532835,1.76586167,-2.84509851,5.65597253e-05,5.71715050,-3.70805985,-1,-1.0
3.16376393e+02,3.99999972,-7.48951400e-10,3.10424881,3.65551630,1.76376896,-2.84509851,5.64401644e-05,5.71919332,-3.70193992,-1,-0.9999839808031837
3.31237083e+02,3.99999971,-7.39291047e-10,3.10085319,3.65574797,1.76160781,-2.84509851,5.63412775e-05,5.72130233,-3.69562037,-1,-0.9999672385197661
3.45704596e+02,3.99999970,-7.30180767e-10,3.11005663,3.65924295,1.75921956,-2.84509851,6.59140467e-05,5.72340065,-3.68933777,-1,-0.9999509391956435
3.61075346e+02,3.99999969,-7.39953887e-10,3.11595110,3.66195039,1.75675192,-2.84509851,7.48386588e-05,5.72564115,-3.68262853,-1,-0.9999336222707333
3.77947736e+02,3.99999968,-7.43838656e-10,3.11259121,3.66235675,1.75425925,-2.84509851,7.64390336e-05,5.72807188,-3.67534466,-1,-0.9999146135749518
3.95646306e+02,3.99999967,-7.33788186e-10,3.10857863,3.66263876,1.75168895,-2.84509851,7.65269835e-05,5.73058127,-3.66782425,-1,-0.9998946740919918
4.14205812e+02,3.99999965,-7.23288207e-10,3.10441178,3.66292226,1.74903852,-2.84509851,7.65806997e-05,5.73316925,-3.66006794,-1,-0.9998737646652058
4.33605253e+02,3.99999964,-7.12167011e-10,3.10012048,3.66321286,1.74631167,-2.84509851,7.65856100e-05,5.73583215,-3.65208763,-1,-0.9998519089546455
4.53890309e+02,3.99999962,-7.00475924e-10,3.09570897,3.66351288,1.74350588,-2.84509851,7.65473334e-05,5.73857209,-3.64387598,-1,-0.9998290554965156
4.75095651e+02,3.99999961,-6.88652819e-10,3.09117104,3.66382113,1.74062042,-2.84509851,7.65089231e-05,5.74138996,-3.63543131,-1,-0.9998051652299308
4.97264452e+02,3.99999960,-6.76730203e-10,3.08668685,3.66418405,1.73765248,-2.84509851,7.65246166e-05,5.74428764,-3.62674640,-1,-0.999780189515521
5.20576193e+02,3.99999958,-6.64888291e-10,3.08187423,3.66451057,1.73459313,-2.84509851,7.65157736e-05,5.74727574,-3.61779193,-1,-0.9997539261472129
5.44926081e+02,3.99999956,-6.52710612e-10,3.07693323,3.66484512,1.73145353,-2.84509851,7.64796559e-05,5.75034225,-3.60860178,-1,-0.9997264931864227
5.70347059e+02,3.99999955,-6.40475222e-10,3.07186990,3.66518912,1.72823386,-2.84509851,7.64498954e-05,5.75348722,-3.59917614,-1,-0.9996978535190565
5.96992670e+02,3.99999953,-6.27963999e-10,3.06667070,3.66554342,1.72492566,-2.84509851,7.63981062e-05,5.75671869,-3.58949382,-1,-0.9996678341611936
6.24902998e+02,3.99999951,-6.15488254e-10,3.06138930,3.66592142,1.72152896,-2.84509851,7.63767751e-05,5.76003655,-3.57954965,-1,-0.999636389953579
6.53996328e+02,3.99999950,-6.02956222e-10,3.05590717,3.66628823,1.71805427,-2.84509851,7.63334908e-05,5.76343074,-3.56937516,-1,-0.9996036129575966
6.84591126e+02,3.99999948,-5.90368664e-10,3.05029054,3.66666934,1.71448374,-2.84509851,7.62953977e-05,5.76691888,-3.55891963,-1,-0.9995691443845207
7.16475164e+02,3.99999946,-5.77633773e-10,3.04473843,3.66710724,1.71083188,-2.84509851,7.62981551e-05,5.77048581,-3.54822797,-1,-0.9995332233337015
7.49945869e+02,3.99999944,-5.65233947e-10,3.03888300,3.66751548,1.70708768,-2.84509851,7.63039416e-05,5.77414390,-3.53726188,-1,-0.9994955147192764
7.84834605e+02,3.99999942,-5.52630684e-10,3.03288910,3.66792903,1.70326365,-2.84509851,7.62818526e-05,5.77788042,-3.52606025,-1,-0.9994562085291737
8.21473347e+02,3.99999940,-5.40019138e-10,3.02669095,3.66833778,1.69934707,-2.84509851,7.62409336e-05,5.78170812,-3.51458536,-1,-0.9994149307552189
8.59719103e+02,3.99999938,-5.27417939e-10,3.02038637,3.66876065,1.69534905,-2.84509851,7.62057335e-05,5.78561560,-3.50287273,-1,-0.999371842494413
8.99724342e+02,3.99999936,-5.14783456e-10,3.01401227,3.66920966,1.69126396,-2.84509851,7.61819495e-05,5.78960795,-3.49090518,-1,-0.99932677197282
9.41643696e+02,3.99999934,-5.02140106e-10,3.00738687,3.66963972,1.68709115,-2.84509851,7.61168588e-05,5.79368687,-3.47867794,-1,-0.999279544979635
9.85457828e+02,3.99999932,-4.89657807e-10,3.00086438,3.67013866,1.68283202,-2.84509851,7.61395352e-05,5.79784903,-3.46620122,-1,-0.9992301833002214
1.03124778e+03,3.99999930,-4.77243820e-10,2.99406604,3.67061015,1.67848988,-2.84509851,7.61198397e-05,5.80209353,-3.45347791,-1,-0.9991785956314074
1.07915121e+03,3.99999927,-4.64677620e-10,2.98704289,3.67106721,1.67406417,-2.84509851,7.60346484e-05,5.80642006,-3.44050719,-1,-0.999124626885559
1.12931493e+03,3.99999925,-4.52149191e-10,2.98007934,3.67158406,1.66954870,-2.84509851,7.59999783e-05,5.81083400,-3.42727100,-1,-0.9990681116620044
1.18179786e+03,3.99999923,-4.39764615e-10,2.97280259,3.67206353,1.66495139,-2.84509851,7.59133867e-05,5.81532946,-3.41379072,-1,-0.9990089835805592
1.23668861e+03,3.99999920,-4.27682534e-10,2.96546459,3.67256891,1.66027163,-2.84509851,7.58788065e-05,5.81990597,-3.40006799,-1,-0.9989471428118257
1.29409688e+03,3.99999918,-4.16027568e-10,2.95811197,3.67311092,1.65551129,-2.84509851,7.59326965e-05,5.82456132,-3.38610924,-1,-0.9988824657660855
1.35411928e+03,3.99999915,-4.04670285e-10,2.95063213,3.67366141,1.65067039,-2.84509851,7.60202827e-05,5.82929594,-3.37191240,-1,-0.998814843601017
1.41691537e+03,3.99999913,-3.93490187e-10,2.94300024,3.67421226,1.64575276,-2.84509851,7.61072776e-05,5.83410596,-3.35748890,-1,-0.9987440965538541
1.48256636e+03,3.99999910,-3.82047354e-10,2.93513008,3.67474156,1.64075907,-2.84509850,7.60782885e-05,5.83899161,-3.34284009,-1,-0.9986701331321534
1.55123796e+03,3.99999908,-3.70913744e-10,2.92716654,3.67528550,1.63568941,-2.84509850,7.60866332e-05,5.84395149,-3.32796334,-1,-0.9985927666444635
1.62307334e+03,3.99999905,-3.59732638e-10,2.91904802,3.67582799,1.63054519,-2.84509850,7.60379160e-05,5.84898520,-3.31286864,-1,-0.9985118357932461
1.69824481e+03,3.99999903,-3.48665499e-10,2.91082525,3.67638191,1.62532597,-2.84509850,7.59769449e-05,5.85409261,-3.29755387,-1,-0.9984271464513874
1.77686467e+03,3.99999900,-3.38017756e-10,2.90267411,3.67699205,1.62003010,-2.84509850,7.60287573e-05,5.85927479,-3.28201482,-1,-0.9983385720999689
1.85904376e+03,3.99999897,-3.27517205e-10,2.89417662,3.67754920,1.61466706,-2.84509850,7.59935643e-05,5.86452366,-3.26627511,-1,-0.9982459878649308
1.94494845e+03,3.99999894,-3.17141990e-10,2.88556169,3.67811051,1.60923698,-2.84509850,7.59371734e-05,5.86983875,-3.25033275,-1,-0.9981492063112553
2.03478983e+03,3.99999892,-3.07057054e-10,2.87707467,3.67874008,1.60373432,-2.84509849,7.59804422e-05,5.87522500,-3.23417627,-1,-0.9980479896216804
2.12882857e+03,3.99999889,-2.97017437e-10,2.86833290,3.67933961,1.59816437,-2.84509849,7.59345580e-05,5.88067832,-3.21781947,-1,-0.9979420441213487
2.22713855e+03,3.99999886,-2.87311917e-10,2.85940315,3.67992369,1.59253134,-2.84509849,7.58900629e-05,5.88619472,-3.20127294,-1,-0.9978312865759084
2.32988078e+03,3.99999883,-2.77776184e-10,2.85039832,3.68051984,1.58683663,-2.84509849,7.58416097e-05,5.89177190,-3.18454764,-1,-0.9977155355890007
2.43735521e+03,3.99999880,-2.68510509e-10,2.84150760,3.68117835,1.58107426,-2.84509848,7.58786336e-05,5.89741509,-3.16762169,-1,-0.9975944532323123
2.54982861e+03,3.99999877,-2.59392119e-10,2.83234976,3.68179805,1.57525593,-2.84509848,7.58348996e-05,5.90307710,-3.15059488,-1,-0.997467738958631
2.66735246e+03,3.99999874,-2.50550328e-10,2.82318152,3.68243867,1.56939058,-2.84509848,7.58242729e-05,5.90873918,-3.13351482,-1,-0.9973353347697917
2.79025371e+03,3.99999871,-2.41909099e-10,2.81378910,3.68305853,1.56345463,-2.84509848,7.57762744e-05,5.91454565,-3.11608595,-1,-0.9971968723188631
2.91881996e+03,3.99999868,-2.33425634e-10,2.80443330,3.68371597,1.55746185,-2.84509848,7.57482358e-05,5.92041080,-3.09848579,-1,-0.9970520275912326
3.05313035e+03,3.99999865,-2.25283089e-10,2.79493183,3.68436434,1.55141439,-2.84509847,7.57415630e-05,5.92633374,-3.08071799,-1,-0.9969007114265509
3.19377196e+03,3.99999862,-2.17296884e-10,2.78547198,3.68505314,1.54530687,-2.84509847,7.57580978e-05,5.93231869,-3.06276635,-1,-0.9967422624114013
3.34059591e+03,3.99999859,-2.09558980e-10,2.77572724,3.68569391,1.53915296,-2.84509847,7.57172067e-05,5.93835083,-3.04467157,-1,-0.9965768482762968
3.49430844e+03,3.99999856,-2.01935530e-10,2.76589365,3.68633547,1.53295304,-2.84509847,7.56274945e-05,5.94442900,-3.02643778,-1,-0.9964036733603195
3.65484532e+03,3.99999853,-1.94553189e-10,2.75595328,3.68697349,1.52670681,-2.84509847,7.55355119e-05,5.95055465,-3.00805912,-1,-0.9962228100259821
3.82286668e+03,3.99999850,-1.87188526e-10,2.74619802,3.68768635,1.52040347,-2.84509847,7.54564517e-05,5.95673671,-2.98951349,-1,-0.9960335145606067
3.99849069e+03,3.99999846,-1.80235786e-10,2.73612137,3.68834138,1.51405508,-2.84509847,7.53700407e-05,5.96296441,-2.97083005,-1,-0.995835653832042
4.18205775e+03,3.99999843,-1.73388397e-10,2.72593079,3.68899029,1.50766197,-2.84509847,7.52234668e-05,5.96923736,-2.95201070,-1,-0.995628844340378
4.37398650e+03,3.99999840,-1.66835392e-10,2.71568922,3.68964617,1.50122942,-2.84509847,7.51135849e-05,5.97554980,-2.93307290,-1,-0.9954126144393097
4.57478592e+03,3.99999837,-1.60541642e-10,2.70562374,3.69037015,1.49474872,-2.84509847,7.51151484e-05,5.98190988,-2.91399646,-1,-0.9951863907040893
4.78475465e+03,3.99999833,-1.54469619e-10,2.69535269,3.69106140,1.48823070,-2.84509847,7.50759539e-05,5.98830761,-2.89480763,-1,-0.9949498366822696
5.00419490e+03,3.99999830,-1.48573733e-10,2.68491532,3.69172995,1.48167490,-2.84509847,7.49921419e-05,5.99474364,-2.87550144,-1,-0.9947026118993858
5.23360607e+03,3.99999827,-1.42841251e-10,2.67443210,3.69240282,1.47508756,-2.84509847,7.48927003e-05,6.00121163,-2.85609663,-1,-0.9944441537236666
5.47351794e+03,3.99999823,-1.37297646e-10,2.66407945,3.69312733,1.46846222,-2.84509847,7.48581225e-05,6.00771805,-2.83657772,-1,-0.9941738652967622
5.72436198e+03,3.99999820,-1.32004355e-10,2.65350710,3.69381348,1.46180374,-2.84509847,7.48026417e-05,6.01425897,-2.81695601,-1,-0.9938912605178911
5.98663497e+03,3.99999817,-1.26819880e-10,2.64283000,3.69449040,1.45511136,-2.84509847,7.46885037e-05,6.02083418,-2.79723336,-1,-0.9935957797070142
6.26080666e+03,3.99999813,-1.21870236e-10,2.63220111,3.69519542,1.44838686,-2.84509847,7.46447915e-05,6.02744139,-2.77741508,-1,-0.9932868936365092
6.54743358e+03,3.99999810,-1.17063312e-10,2.62145457,3.69588381,1.44163681,-2.84509848,7.45553395e-05,6.03405830,-2.75749885,-1,-0.9929639753110623
6.84741438e+03,3.99999806,-1.12434685e-10,2.61092160,3.69664266,1.43485264,-2.84509995,7.45666688e-05,6.04064658,-2.73740627,-1,-0.9926260122976711
7.16076875e+03,3.99999803,-1.07996817e-10,2.60013408,3.69735120,1.42804179,-2.84509850,7.45258585e-05,6.04719837,-2.71714598,-1,-0.992272982413277
7.48834331e+03,3.99999800,-1.03701853e-10,2.58924623,3.69804712,1.42120604,-2.84509849,7.44531882e-05,6.05371200,-2.69671673,-1,-0.9919039318426809
7.83097001e+03,3.99999796,-9.95431189e-11,2.57833274,3.69874697,1.41434958,-2.84509849,7.43684088e-05,6.06019396,-2.67613941,-1,-0.9915179232981332
8.18907701e+03,3.99999793,-9.55655817e-11,2.56739646,3.69945118,1.40747302,-2.84509849,7.43103400e-05,6.06664711,-2.65540767,-1,-0.9911144744079493
8.56353206e+03,3.99999789,-9.18393553e-11,2.55643648,3.70015774,1.40057990,-2.84509848,7.43387309e-05,6.07307249,-2.63452678,-1,-0.9906926075515454
8.95513591e+03,3.99999786,-8.81798695e-11,2.54547790,3.70087183,1.39367244,-2.84509848,7.43174912e-05,6.07947314,-2.61350269,-1,-0.9902514205915748
9.36440141e+03,3.99999782,-8.46093709e-11,2.53438331,3.70155861,1.38675158,-2.84509848,7.42152782e-05,6.08585420,-2.59233567,-1,-0.9897903357432877
9.79239217e+03,3.99999779,-8.11829211e-11,2.52337379,3.70227286,1.37981832,-2.84509848,7.41589485e-05,6.09222345,-2.57103766,-1,-0.9893081547271921
1.02397196e+04,3.99999775,-7.78835673e-11,2.51223630,3.70295826,1.37287878,-2.84509848,7.40553858e-05,6.09858261,-2.54962648,-1,-0.9888041887193166
1.07076331e+04,3.99999772,-7.47146704e-11,2.50128854,3.70369697,1.36592748,-2.84509848,7.40317391e-05,6.10493908,-2.52808888,-1,-0.9882770301262787
1.11967103e+04,3.99999768,-7.16805305e-11,2.49020769,3.70440447,1.35897205,-2.84509848,7.39752660e-05,6.11128919,-2.50643719,-1,-0.9877260281811778
1.17080730e+04,3.99999764,-6.87601897e-11,2.47907498,3.70509766,1.35201933,-2.84509848,7.38869781e-05,6.11764317,-2.48472370,-1,-0.9871499190467672
1.22429587e+04,3.99999761,-6.59604208e-11,2.46791813,3.70578207,1.34507209,-2.84509848,7.37894265e-05,6.12400272,-2.46295013,-1,-0.9865473085363884
1.28026196e+04,3.99999757,-6.32878779e-11,2.45706538,3.70654382,1.33812219,-2.84509848,7.38246470e-05,6.13038280,-2.44111360,-1,-0.9859167859021358
1.33875653e+04,3.99999754,-6.07264476e-11,2.44599974,3.70724454,1.33118795,-2.84509848,7.37729514e-05,6.13677848,-2.41927531,-1,-0.9852577770207601
1.39992263e+04,3.99999750,-5.82676370e-11,2.43492508,3.70793374,1.32427222,-2.84509848,7.37003701e-05,6.14319420,-2.39746567,-1,-0.9845686702688152
1.46388773e+04,3.99999746,-5.59042824e-11,2.42387534,3.70861771,1.31737940,-2.84509847,7.36114113e-05,6.14963563,-2.37571059,-1,-0.9838480295495471
1.53078588e+04,3.99999743,-5.36525203e-11,2.41287623,3.70929840,1.31051847,-2.84509847,7.35322807e-05,6.15615657,-2.35397226,-1,-0.9830943446349028
1.60075732e+04,3.99999739,-5.15010970e-11,2.40191350,3.70996921,1.30369548,-2.84509847,7.34448222e-05,6.16264180,-2.33249034,-1,-0.9823060355593314
1.67397578e+04,3.99999735,-4.94499864e-11,2.39118162,3.71067924,1.29690948,-2.84509847,7.34282484e-05,6.16914387,-2.31115761,-1,-0.981481145053757
1.75054454e+04,3.99999732,-4.75006645e-11,2.38038613,3.71134617,1.29017788,-2.84509847,7.33660084e-05,6.17563882,-2.29004993,-1,-0.9806185095497107
1.83070470e+04,3.99999728,-4.56352348e-11,2.36965134,3.71199381,1.28351520,-2.84509847,7.32672759e-05,6.18209245,-2.26921008,-1,-0.9797154127772668
1.91459469e+04,3.99999724,-4.38638515e-11,2.35917846,3.71267459,1.27691721,-2.84510737,7.32370735e-05,6.18856107,-2.24837781,-1,-0.9787702951626144
2.00235828e+04,3.99999721,-4.21951216e-11,2.34877814,3.71333600,1.27039422,-2.84509847,7.32178619e-05,6.19479788,-2.22789004,-1,-0.9777815369706759
2.09414197e+04,3.99999717,-4.05978585e-11,2.33842488,3.71396726,1.26395508,-2.84509847,7.31468050e-05,6.20087984,-2.20738649,-1,-0.9767474877097714
2.19020217e+04,3.99999713,-3.90735130e-11,2.32822795,3.71459597,1.25759918,-2.84509847,7.30732445e-05,6.20666986,-2.18692660,-1,-0.9756652586251447
2.29078649e+04,3.99999709,-3.76316749e-11,2.31818767,3.71522039,1.25133020,-2.84509847,7.30183538e-05,6.21215683,-2.16629404,-1,-0.9745320601042028
2.39596102e+04,3.99999705,-3.62591385e-11,2.30826945,3.71583340,1.24514508,-2.84509847,7.29578384e-05,6.21734576,-2.14538912,-1,-0.9733471475667739
2.50596482e+04,3.99999701,-3.49566984e-11,2.29843113,3.71642589,1.23904093,-2.84509847,7.28877320e-05,6.22212376,-2.12430242,-1,-0.9721078277258882
2.62117042e+04,3.99999698,-3.37092824e-11,2.28880636,3.71703549,1.23300935,-2.84510105,7.28410553e-05,6.22677876,-2.10267783,-1,-0.9708099036008931
2.74156598e+04,3.99999694,-3.25273722e-11,2.27931205,3.71764783,1.22703753,-2.84509847,7.28312498e-05,6.23140580,-2.08049163,-1,-0.9694535085830616
2.86755260e+04,3.99999690,-3.13980642e-11,2.26984929,3.71823862,1.22112455,-2.84509847,7.27991370e-05,6.23601113,-2.05782616,-1,-0.9680341238176978
2.99936184e+04,3.99999686,-3.03153576e-11,2.26060603,3.71885825,1.21526366,-2.84509847,7.28156140e-05,6.24068301,-2.03472670,-1,-0.9665491405139932
3.13710684e+04,3.99999681,-2.92825457e-11,2.25138575,3.71946056,1.20944890,-2.84509847,7.28273153e-05,6.24547610,-2.01121089,-1,-0.9649972840191922
3.28136353e+04,3.99999677,-2.82903446e-11,2.24223281,3.72005363,1.20368629,-2.84509847,7.28226737e-05,6.25041842,-1.98734728,-1,-0.9633720658167528
3.43213103e+04,3.99999673,-2.73406997e-11,2.23326338,3.72067107,1.19796670,-2.84509847,7.28719239e-05,6.25551718,-1.96313407,-1,-0.9616734958208916
3.58989418e+04,3.99999669,-2.64356204e-11,2.22440260,3.72129564,1.19228717,-2.84509847,7.29536265e-05,6.26078355,-1.93854588,-1,-0.9598961117491084
3.75494327e+04,3.99999665,-2.55690460e-11,2.21560187,3.72191346,1.18665116,-2.84509847,7.30395132e-05,6.26622638,-1.91357977,-1,-0.9580366431493225
3.92749696e+04,3.99999660,-2.47374510e-11,2.20707305,3.72258093,1.18105182,-2.84509847,7.32139861e-05,6.27186684,-1.88816308,-1,-0.9560926265641224
4.10802022e+04,3.99999656,-2.39478506e-11,2.19850915,3.72321801,1.17549572,-2.84509847,7.33757359e-05,6.27769309,-1.86229888,-1,-0.9540588235695043
4.29696914e+04,3.99999652,-2.31902745e-11,2.19021252,3.72390192,1.16997957,-2.84509848,7.36219728e-05,6.28360548,-1.83627504,-1,-0.9519300957849195
4.49446038e+04,3.99999647,-2.24646955e-11,2.18191163,3.72456388,1.16450521,-2.84509848,7.38511408e-05,6.28968737,-1.80990110,-1,-0.9497051289007472
4.70101033e+04,3.99999643,-2.17676075e-11,2.17374264,3.72523790,1.15907268,-2.84509848,7.41095144e-05,6.29593221,-1.78315981,-1,-0.9473781051873033
4.91723138e+04,3.99999638,-2.10989544e-11,2.16570863,3.72592386,1.15368375,-2.84509848,7.43985028e-05,6.30235219,-1.75601098,-1,-0.9449421253640414
5.14332366e+04,3.99999633,-2.04598048e-11,2.15787494,3.72663808,1.14833846,-2.84509848,7.47556595e-05,6.30894956,-1.72845081,-1,-0.9423949347353988
5.37974445e+04,3.99999629,-1.98533900e-11,2.15015255,3.72735526,1.14304292,-2.84509848,7.51561201e-05,6.31572773,-1.70046443,-1,-0.9397313815141022
5.62697585e+04,3.99999624,-1.92717676e-11,2.14259077,3.72808418,1.13780418,-2.84509848,7.55892312e-05,6.32268786,-1.67204927,-1,-0.936946034286916
5.88573165e+04,3.99999619,-1.87178008e-11,2.13528526,3.72884485,1.13263009,-2.84509848,7.61009760e-05,6.32983520,-1.64317429,-1,-0.9340308513851959
6.15643005e+04,3.99999614,-1.81942200e-11,2.12817515,3.72961694,1.12753086,-2.84509848,7.66738990e-05,6.33716619,-1.61382952,-1,-0.9309811213029987
6.43956776e+04,3.99999609,-1.76978616e-11,2.12133022,3.73041193,1.12251839,-2.84509848,7.73181075e-05,6.34468584,-1.58399676,-1,-0.927791248028567
6.73573134e+04,3.99999604,-1.72291947e-11,2.11474687,3.73122037,1.11760985,-2.84509848,7.80236253e-05,6.35240055,-1.55366190,-1,-0.9244546232861333
7.04556087e+04,3.99999598,-1.67912419e-11,2.10861444,3.73208295,1.11281847,-2.84509848,7.88776344e-05,6.36031741,-1.52280311,-1,-0.9209640358353245
7.36969743e+04,3.99999593,-1.63843567e-11,2.10277828,3.73294702,1.10817225,-2.84509848,7.97958016e-05,6.36843943,-1.49140117,-1,-0.9173122631696127
7.70879698e+04,3.99999588,-1.60078468e-11,2.09738431,3.73383558,1.10369815,-2.84509848,8.08163635e-05,6.37676301,-1.45942670,-1,-0.9134919151420864
8.06356800e+04,3.99999582,-1.56643802e-11,2.09251339,3.73475255,1.09942875,-2.84509848,8.19626926e-05,6.38530005,-1.42685447,-1,-0.9094950099073832
8.43472165e+04,3.99999576,-1.53595719e-11,2.08842778,3.73574658,1.09539788,-2.84509848,8.33547299e-05,6.39406017,-1.39365455,-1,-0.9053135354268458
8.82300562e+04,3.99999570,-1.50954180e-11,2.08491710,3.73674226,1.09165118,-2.84509848,8.48744114e-05,6.40305554,-1.35979215,-1,-0.9009390681091818
9.22913736e+04,3.99999564,-1.48721721e-11,2.08227009,3.73778233,1.08824754,-2.84509848,8.65998604e-05,6.41229292,-1.32523007,-1,-0.89636352505162
9.65381020e+04,3.99999558,-1.46964479e-11,2.08064035,3.73887317,1.08525099,-2.84509848,8.85819283e-05,6.42179613,-1.28993157,-1,-0.8915790950910435
1.00977009e+05,3.99999552,-1.45780607e-11,2.08020378,3.74002133,1.08273638,-2.84509848,9.08935842e-05,6.43157626,-1.25386345,-1,-0.8865781537445206
1.05612933e+05,3.99999545,-1.45226565e-11,2.08117662,3.74123756,1.08079035,-2.84509848,9.35920195e-05,6.44165269,-1.21698049,-1,-0.8813552499957065
1.10448926e+05,3.99999538,-1.45416129e-11,2.08379022,3.74252906,1.07951414,-2.84509849,9.67645615e-05,6.45204120,-1.17924857,-1,-0.8759069454141518
1.15486125e+05,3.99999530,-1.46552142e-11,2.08845689,3.74394626,1.07901308,-2.84509849,1.00656719e-04,6.46276331,-1.14064697,-1,-0.8702319590380545
1.20721357e+05,3.99999523,-1.48697908e-11,2.09520761,3.74544095,1.07939906,-2.84509849,1.05217285e-04,6.47383890,-1.10116118,-1,-0.8643338656183366
