star_age,star_mass,star_mdot,log_L,log_Teff,log_R,log_surf_z,v_wind_Km_per_s,log_center_T,log_center_Rho,phase,x
1.63848704e+02,8.99999908,-3.80346751e-09,3.74186205,3.65199327,2.08962164,-2.84509848,9.84801809e-05,5.71857803,-4.32921897,-1,-1.0
1.70781686e+02,8.99999906,-3.69235943e-09,3.73915780,3.65224603,2.08776400,-2.84509848,9.65636204e-05,5.72043099,-4.32365810,-1,-0.9999575385193484
1.77971484e+02,8.99999903,-3.58580695e-09,3.73618010,3.65245407,2.08585907,-2.84509848,9.47070867e-05,5.72233239,-4.31795235,-1,-0.9999135041530878
1.85448379e+02,8.99999900,-3.47858265e-09,3.73302827,3.65264525,2.08390079,-2.84509848,9.27945629e-05,5.72428756,-4.31208565,-1,-0.9998677114433452
1.93229937e+02,8.99999898,-3.36929044e-09,3.72981050,3.65284824,2.08188592,-2.84509848,9.08125149e-05,5.72629897,-4.30605002,-1,-0.999820052806058
2.01326891e+02,8.99999895,-3.26153621e-09,3.72655679,3.65307103,2.07981349,-2.84509848,8.88615143e-05,5.72836735,-4.29984256,-1,-0.9997704625062984
2.09754539e+02,8.99999892,-3.15331356e-09,3.72328752,3.65332070,2.07767951,-2.84509848,8.70390520e-05,5.73049423,-4.29345977,-1,-0.9997188468505113
2.17672303e+02,8.99999890,-3.05491810e-09,3.73667598,3.65786973,2.07527569,-2.84509848,1.04100140e-04,5.73255716,-4.28728336,-1,-0.9996703540110823
2.26610376e+02,8.99999887,-3.42359577e-09,3.73669429,3.65906470,2.07289490,-2.84509848,1.22669165e-04,5.73486440,-4.28036425,-1,-0.9996156122255487
2.36133159e+02,8.99999884,-3.33961906e-09,3.73299313,3.65935331,2.07046710,-2.84509848,1.21360081e-04,5.73728720,-4.27309305,-1,-0.9995572893471533
2.46055519e+02,8.99999881,-3.22179901e-09,3.72910419,3.65962662,2.06797600,-2.84509848,1.18768909e-04,5.73977396,-4.26563106,-1,-0.9994965192345007
2.56380174e+02,8.99999877,-3.10605661e-09,3.72511426,3.65990590,2.06542248,-2.84509848,1.16201687e-04,5.74232296,-4.25798215,-1,-0.9994332852410305
2.67126749e+02,8.99999874,-2.98845427e-09,3.72101427,3.66018951,2.06280526,-2.84509848,1.13502205e-04,5.74493541,-4.25014239,-1,-0.9993674671722061
2.78316671e+02,8.99999871,-2.86864082e-09,3.71692879,3.66051046,2.06012063,-2.84509848,1.10704139e-04,5.74761394,-4.24210369,-1,-0.9992989337970299
2.89972613e+02,8.99999868,-2.75169116e-09,3.71271630,3.66083350,2.05736831,-2.84509848,1.07938232e-04,5.75035988,-4.23386366,-1,-0.9992275462532992
3.02151159e+02,8.99999865,-2.63805861e-09,3.70828262,3.66113748,2.05454350,-2.84509848,1.05180417e-04,5.75317859,-4.22540456,-1,-0.999152957988777
3.14828349e+02,8.99999861,-2.56677753e-09,3.70393419,3.66149797,2.05164831,-2.84509848,1.04147020e-04,5.75606581,-4.21674077,-1,-0.9990753157479777
3.28008443e+02,8.99999858,-2.52231345e-09,3.69930954,3.66182172,2.04868849,-2.84509848,1.04123541e-04,5.75901827,-4.20787994,-1,-0.9989945934402654
3.41710843e+02,8.99999855,-2.47727085e-09,3.69463213,3.66216583,2.04566155,-2.84509848,1.04109090e-04,5.76203657,-4.19882171,-1,-0.9989106722368812
3.56052553e+02,8.99999851,-2.43116736e-09,3.68983272,3.66251905,2.04255541,-2.84509848,1.04063824e-04,5.76513353,-4.18952640,-1,-0.99882283553953
3.70946997e+02,8.99999847,-2.38792101e-09,3.68496052,3.66288676,2.03938390,-2.84509848,1.04162856e-04,5.76829480,-4.18003826,-1,-0.9987316135883231
3.86466057e+02,8.99999844,-2.34423331e-09,3.67992270,3.66324760,2.03614330,-2.84509848,1.04229342e-04,5.77152399,-4.17034071,-1,-0.9986365661374684
4.02652227e+02,8.99999840,-2.29943658e-09,3.67490906,3.66365199,2.03282770,-2.84509848,1.04315145e-04,5.77481278,-4.16040565,-1,-0.9985374329298128
4.19448377e+02,8.99999836,-2.25351513e-09,3.66960531,3.66401521,2.02944938,-2.84509848,1.04276541e-04,5.77814701,-4.15025630,-1,-0.9984345638616042
4.37024036e+02,8.99999832,-2.20911437e-09,3.66428416,3.66441354,2.02599215,-2.84509849,1.04357229e-04,5.78153597,-4.13984062,-1,-0.9983269206419092
4.55266270e+02,8.99999828,-2.16485917e-09,3.65891118,3.66483176,2.02246923,-2.84509850,1.04471223e-04,5.78497161,-4.12920177,-1,-0.998215194942054
4.74301429e+02,8.99999824,-2.11953248e-09,3.65336025,3.66524203,2.01887323,-2.84509849,1.04508187e-04,5.78845796,-4.11830821,-1,-0.9980986129235837
4.94088944e+02,8.99999820,-2.07415412e-09,3.64770038,3.66565868,2.01520997,-2.84509849,1.04540700e-04,5.79199187,-4.10717750,-1,-0.9979774230538687
5.14734104e+02,8.99999816,-2.02940058e-09,3.64184860,3.66606287,2.01147570,-2.84509849,1.04566233e-04,5.79557487,-4.09578958,-1,-0.9978509804838621
5.36175250e+02,8.99999812,-1.98474823e-09,3.63591982,3.66647958,2.00767790,-2.84509849,1.04600676e-04,5.79920121,-4.08417249,-1,-0.997719662847955
5.58577302e+02,8.99999807,-1.93971063e-09,3.62997586,3.66693021,2.00380466,-2.84509849,1.04651852e-04,5.80287982,-4.07228119,-1,-0.9975824600833214
5.81851411e+02,8.99999803,-1.89554774e-09,3.62386606,3.66737061,1.99986897,-2.84509849,1.04710786e-04,5.80660142,-4.06015668,-1,-0.9974399163512034
6.06113182e+02,8.99999798,-1.85268484e-09,3.61789400,3.66788161,1.99586094,-2.84509851,1.04942843e-04,5.81037336,-4.04776632,-1,-0.9972913236215685
6.31378207e+02,8.99999794,-1.80848827e-09,3.61152337,3.66832430,1.99179023,-2.84509850,1.04952023e-04,5.81418890,-4.03512608,-1,-0.99713658640024
6.57664604e+02,8.99999789,-1.76536531e-09,3.60529258,3.66883514,1.98765317,-2.84509850,1.05116431e-04,5.81804964,-4.02223136,-1,-0.9969755937223972
6.85024099e+02,8.99999784,-1.72262831e-09,3.59875390,3.66929950,1.98345510,-2.84509850,1.05188946e-04,5.82195326,-4.00908641,-1,-0.9968080287889269
7.13561979e+02,8.99999780,-1.68060354e-09,3.59209543,3.66976562,1.97919362,-2.84509850,1.05271995e-04,5.82589974,-3.99567748,-1,-0.9966332467630313
7.43243692e+02,8.99999775,-1.63818646e-09,3.58533183,3.67023470,1.97487367,-2.84509850,1.05298338e-04,5.82988644,-3.98202194,-1,-0.9964514592605892
7.74142533e+02,8.99999770,-1.59650376e-09,3.57879537,3.67079258,1.97048967,-2.84509851,1.05494800e-04,5.83391779,-3.96810080,-1,-0.9962622173818019
8.06298359e+02,8.99999765,-1.55492445e-09,3.57183478,3.67127234,1.96604987,-2.84509851,1.05510587e-04,5.83799060,-3.95392503,-1,-0.9960652770199871
8.39797048e+02,8.99999760,-1.51520801e-09,3.56477590,3.67175505,1.96155499,-2.84509851,1.05611075e-04,5.84210303,-3.93948738,-1,-0.9958601122099778
8.74702796e+02,8.99999754,-1.47519237e-09,3.55776180,3.67227740,1.95700326,-2.84509851,1.05715080e-04,5.84625719,-3.92478591,-1,-0.9956463297793683
9.11028447e+02,8.99999749,-1.43585083e-09,3.55066802,3.67280656,1.95239804,-2.84509851,1.05830133e-04,5.85045250,-3.90982442,-1,-0.9954238510642796
9.48838789e+02,8.99999744,-1.39695849e-09,3.54344974,3.67333025,1.94774152,-2.84509851,1.05912499e-04,5.85468814,-3.89460249,-1,-0.9951922792665648
9.88200356e+02,8.99999739,-1.35913316e-09,3.53613776,3.67385480,1.94303642,-2.84509851,1.06020583e-04,5.85896299,-3.87912268,-1,-0.9949512068945916
1.02918778e+03,8.99999733,-1.32167260e-09,3.52891008,3.67442586,1.93828046,-2.84509853,1.06185096e-04,5.86327901,-3.86337576,-1,-0.9947001768600213
1.07185592e+03,8.99999728,-1.28519497e-09,3.52152877,3.67498121,1.93347911,-2.84509853,1.06337510e-04,5.86763471,-3.84736852,-1,-0.994438853175487
1.11626886e+03,8.99999722,-1.24931221e-09,3.51398494,3.67551653,1.92863657,-2.84509853,1.06434354e-04,5.87202760,-3.83110640,-1,-0.9941668433545339
1.16250704e+03,8.99999716,-1.21388177e-09,3.50641366,3.67606539,1.92375320,-2.84509853,1.06527294e-04,5.87645808,-3.81458474,-1,-0.9938836547373652
1.21064733e+03,8.99999711,-1.17937294e-09,3.49880307,3.67662417,1.91883035,-2.84509853,1.06648989e-04,5.88092865,-3.79780008,-1,-0.9935888165288717
1.26077093e+03,8.99999705,-1.14558133e-09,3.49118997,3.67720069,1.91387075,-2.84509854,1.06796841e-04,5.88543885,-3.78075145,-1,-0.993281831414589
1.31295145e+03,8.99999699,-1.11263842e-09,3.48358082,3.67779688,1.90887380,-2.84509857,1.06988432e-04,5.88999205,-3.76343585,-1,-0.9929622485654815
1.36726138e+03,8.99999693,-1.08039799e-09,3.47581194,3.67836819,1.90384675,-2.84509855,1.07121355e-04,5.89458475,-3.74586099,-1,-0.9926296240120231
1.42378416e+03,8.99999687,-1.04866615e-09,3.46795221,3.67893119,1.89879087,-2.84509856,1.07208272e-04,5.89922113,-3.72802125,-1,-0.9922834467207299
1.48263041e+03,8.99999681,-1.01798418e-09,3.46019865,3.67953513,1.89370622,-2.84509856,1.07401265e-04,5.90389634,-3.70992214,-1,-0.9919230391925126
1.54391309e+03,8.99999675,-9.88085322e-10,3.45226567,3.68010434,1.88860130,-2.84509856,1.07521442e-04,5.90861158,-3.69156379,-1,-0.9915477095968064
1.60776005e+03,8.99999669,-9.58892594e-10,3.44456702,3.68074474,1.88347118,-2.84509860,1.07774614e-04,5.91337236,-3.67293082,-1,-0.9911566749083124
1.67418970e+03,8.99999663,-9.30410455e-10,3.43658261,3.68132148,1.87832551,-2.84509860,1.07891833e-04,5.91817550,-3.65404153,-1,-0.9907498223738376
1.74335127e+03,8.99999656,-9.03086100e-10,3.42876492,3.68194860,1.87316241,-2.84509860,1.08156514e-04,5.92302561,-3.63488178,-1,-0.9903262380249398
1.81530739e+03,8.99999650,-8.76127244e-10,3.42080854,3.68254591,1.86798960,-2.84509860,1.08313173e-04,5.92792033,-3.61546558,-1,-0.989885538280278
1.89022265e+03,8.99999643,-8.50132778e-10,3.41291461,3.68316384,1.86280678,-2.84509860,1.08537789e-04,5.93286022,-3.59578918,-1,-0.9894267150981321
1.96830343e+03,8.99999637,-8.24793073e-10,3.40496471,3.68377075,1.85761800,-2.84509861,1.08726670e-04,5.93775696,-3.57598692,-1,-0.9889485044913207
2.04959244e+03,8.99999630,-8.00250876e-10,3.39721619,3.68443028,1.85242469,-2.84509868,1.09031935e-04,5.94274811,-3.55587544,-1,-0.9884506448797851
2.13416130e+03,8.99999624,-7.76655383e-10,3.38937996,3.68506705,1.84723303,-2.84509866,1.09324032e-04,5.94784306,-3.53540815,-1,-0.9879326976223685
2.22215665e+03,8.99999617,-7.53651067e-10,3.38154936,3.68570288,1.84204608,-2.84509863,1.09600520e-04,5.95299927,-3.51467664,-1,-0.9873937646132454
2.31389852e+03,8.99999610,-7.31399404e-10,3.37367046,3.68632065,1.83687108,-2.84509862,1.09842002e-04,5.95821280,-3.49365462,-1,-0.9868318858087212
2.40936448e+03,8.99999604,-7.09791889e-10,3.36583233,3.68694127,1.83171077,-2.84509861,1.10085103e-04,5.96348173,-3.47234877,-1,-0.9862471985827299
2.50870036e+03,8.99999597,-6.88761706e-10,3.35802758,3.68756115,1.82656864,-2.84509859,1.10310785e-04,5.96880729,-3.45077297,-1,-0.9856388097903415
2.61217094e+03,8.99999590,-6.68605222e-10,3.35048399,3.68823603,1.82144708,-2.84509869,1.10687285e-04,5.97419839,-3.42891146,-1,-0.9850050977699323
2.71996675e+03,8.99999583,-6.49168834e-10,3.34277983,3.68885577,1.81635553,-2.84509855,1.10956183e-04,5.97965243,-3.40676179,-1,-0.9843448956086344
2.83211764e+03,8.99999575,-6.30623218e-10,3.33514956,3.68947662,1.81129870,-2.84509853,1.11273350e-04,5.98517288,-3.38433712,-1,-0.983658020488261
2.94889928e+03,8.99999568,-6.12596640e-10,3.32774506,3.69013610,1.80627747,-2.84509853,1.11658881e-04,5.99076829,-3.36161539,-1,-0.9829427840507046
3.07061289e+03,8.99999561,-5.95048048e-10,3.32040558,3.69078903,1.80130189,-2.84509851,1.12004321e-04,5.99644265,-3.33859443,-1,-0.9821973414552886
3.19721157e+03,8.99999554,-5.77524105e-10,3.31307299,3.69142002,1.79637360,-2.84509851,1.12193322e-04,6.00219467,-3.31527352,-1,-0.981421979943988
3.32912367e+03,8.99999546,-5.61609848e-10,3.30605831,3.69210339,1.79149954,-2.84509852,1.12693607e-04,6.00802780,-3.29162355,-1,-0.9806140760605129
3.46648144e+03,8.99999539,-5.46351794e-10,3.29903835,3.69275110,1.78669413,-2.84509850,1.13133937e-04,6.01394572,-3.26765864,-1,-0.97977281983149
3.60955624e+03,8.99999531,-5.31963114e-10,3.29226644,3.69342371,1.78196295,-2.84509849,1.13695737e-04,6.01995306,-3.24336643,-1,-0.9788965492956755
3.75853027e+03,8.99999523,-5.18211975e-10,3.28554332,3.69406480,1.77731920,-2.84509849,1.14212151e-04,6.02605445,-3.21875448,-1,-0.9779841485578058
3.91368587e+03,8.99999515,-5.05075928e-10,3.27904966,3.69471460,1.77277279,-2.84509849,1.14767190e-04,6.03225464,-3.19381070,-1,-0.9770338884089421
4.07534411e+03,8.99999507,-4.92852895e-10,3.27301009,3.69542675,1.76832870,-2.84509850,1.15560832e-04,6.03856102,-3.16851127,-1,-0.9760438024358452
4.24377747e+03,8.99999499,-4.81636945e-10,3.26703041,3.69609174,1.76400888,-2.84509848,1.16368752e-04,6.04497990,-3.14285195,-1,-0.9750122218177611
4.41920404e+03,8.99999491,-4.71028682e-10,3.26142323,3.69678120,1.75982637,-2.84509848,1.17268657e-04,6.05151322,-3.11683883,-1,-0.9739378108488833
4.60191923e+03,8.99999482,-4.60819047e-10,3.25601591,3.69744457,1.75579597,-2.84509848,1.18090028e-04,6.05817344,-3.09045321,-1,-0.9728187602722425
4.79210381e+03,8.99999474,-4.51158520e-10,3.25094620,3.69810933,1.75193158,-2.84509848,1.18933816e-04,6.06496490,-3.06368574,-1,-0.9716539629506997
4.99049795e+03,8.99999465,-4.42411561e-10,3.24627667,3.69877494,1.74826560,-2.84509848,1.19889303e-04,6.07190646,-3.03649918,-1,-0.9704388856669273
5.19698836e+03,8.99999456,-4.34496053e-10,3.24226828,3.69950222,1.74480686,-2.84509869,1.21097088e-04,6.07900249,-3.00889336,-1,-0.969174222272596
5.41212778e+03,8.99999446,-4.27377930e-10,3.23861188,3.70019385,1.74159540,-2.84509848,1.22304644e-04,6.08626685,-2.98084040,-1,-0.9678565874771027
5.63636173e+03,8.99999437,-4.21171279e-10,3.23551812,3.70088410,1.73866801,-2.84509848,1.23621940e-04,6.09371661,-2.95232817,-1,-0.9664832526654216
5.86972447e+03,8.99999427,-4.15881684e-10,3.23304436,3.70157477,1.73604979,-2.84509848,1.25061403e-04,6.10135684,-2.92335101,-1,-0.9650540080100457
6.11292342e+03,8.99999417,-4.11646549e-10,3.23133699,3.70226879,1.73380808,-2.84509848,1.26653414e-04,6.10921592,-2.89388163,-1,-0.9635645208730653
6.36623428e+03,8.99999407,-4.08596837e-10,3.23050389,3.70296958,1.73198994,-2.84509848,1.28440466e-04,6.11730592,-2.86389909,-1,-0.9620131027126355
6.62971794e+03,8.99999396,-4.06852879e-10,3.23065501,3.70367696,1.73065074,-2.84509847,1.30450309e-04,6.12563998,-2.83340089,-1,-0.960399380604154
6.90385674e+03,8.99999385,-4.06646705e-10,3.23200791,3.70440140,1.72987830,-2.84509871,1.32759039e-04,6.13424409,-2.80236848,-1,-0.9587204004262081
7.18886401e+03,8.99999373,-4.08455118e-10,3.23483792,3.70516789,1.72976032,-2.84509847,1.35568757e-04,6.14314298,-2.77078725,-1,-0.9569748556259081
7.48466396e+03,8.99999361,-4.12208260e-10,3.23908109,3.70590869,1.73040032,-2.84509847,1.38624507e-04,6.15235354,-2.73867551,-1,-0.9551632103838359
7.79124318e+03,8.99999348,-4.18621191e-10,3.24518524,3.70666811,1.73193355,-2.84509847,1.42227320e-04,6.16189687,-2.70606212,-1,-0.9532855468303728
8.10805886e+03,8.99999335,-4.28393462e-10,3.25348007,3.70745349,1.73451021,-2.84509847,1.46554932e-04,6.17178411,-2.67301219,-1,-0.9513451894392175
8.43418891e+03,8.99999321,-4.42137089e-10,3.26420381,3.70825876,1.73826154,-2.84509847,1.51703628e-04,6.18203240,-2.63957970,-1,-0.9493477856080835
8.76839655e+03,8.99999306,-4.60603157e-10,3.27770923,3.70910066,1.74333044,-2.84509847,1.57858282e-04,6.19262623,-2.60598662,-1,-0.9473009100732155
9.10867273e+03,8.99999289,-4.84827744e-10,3.29414051,3.70998864,1.74977014,-2.84509847,1.65295548e-04,6.20359382,-2.57233584,-1,-0.945216867386638
9.45322744e+03,8.99999272,-5.15578073e-10,3.31352334,3.71096646,1.75750591,-2.84509847,1.74374753e-04,6.21484992,-2.53898584,-1,-0.9431066205762344
9.80137680e+03,8.99999253,-5.53098011e-10,3.33541779,3.71207471,1.76623663,-2.84509848,1.85431126e-04,6.22643666,-2.50597764,-1,-0.9409743581077165
1.01551727e+04,8.99999233,-5.96360993e-10,3.35882947,3.71340121,1.77528946,-2.84509847,1.98929641e-04,6.23841575,-2.47319592,-1,-0.9388075130528081
1.05211891e+04,8.99999210,-6.42331493e-10,3.38200661,3.71502300,1.78363445,-2.84509848,2.15185545e-04,6.25097316,-2.44010086,-1,-0.9365658227834879
1.09072326e+04,8.99999184,-6.86200550e-10,3.40302986,3.71701018,1.79017173,-2.84509848,2.34363434e-04,6.26418298,-2.40627811,-1,-0.934201475291178
1.13173388e+04,8.99999155,-7.23017752e-10,3.42050786,3.71944677,1.79403754,-2.84509848,2.56878204e-04,6.27799881,-2.37116425,-1,-0.9316897542919882
1.17502997e+04,8.99999123,-7.49762012e-10,3.43411559,3.72239686,1.79494123,-2.84509848,2.83448218e-04,6.29172028,-2.33521676,-1,-0.9290380582572583
1.22016076e+04,8.99999089,-7.65567502e-10,3.44414390,3.72596523,1.79281863,-2.84509848,3.15852113e-04,6.30483940,-2.29844708,-1,-0.9262739948767723
1.26649607e+04,8.99999053,-7.69887236e-10,3.45094933,3.73030878,1.78753426,-2.84509848,3.56936067e-04,6.31729599,-2.26086425,-1,-0.9234361599176576
1.31361994e+04,8.99999017,-7.64721790e-10,3.45534624,3.73535827,1.77963374,-2.84509848,4.08580945e-04,6.32950367,-2.22253796,-1,-0.9205500291095379
1.36147491e+04,8.99998981,-7.53436284e-10,3.45829309,3.74094250,1.76993869,-2.84509849,4.72045276e-04,6.34161471,-2.18391276,-1,-0.9176191216259494
1.40999669e+04,8.99998944,-7.38704194e-10,3.46050871,3.74698482,1.75896187,-2.84509850,5.49583214e-04,6.35376614,-2.14522738,-1,-0.9146473749480385
1.45890864e+04,8.99998909,-7.22104042e-10,3.46257736,3.75351117,1.74694348,-2.84509852,6.44836307e-04,6.36593280,-2.10672478,-1,-0.9116517320651383
1.50786102e+04,8.99998874,-7.04868310e-10,3.46497092,3.76055187,1.73405888,-2.84509856,7.63165118e-04,6.37810733,-2.06850155,-1,-0.9086536130216729
1.55723117e+04,8.99998840,-6.88524246e-10,3.46807996,3.76791052,1.72089608,-2.84509860,9.07888479e-04,6.39035436,-2.03028252,-1,-0.905629907394005
1.60724223e+04,8.99998806,-6.74351047e-10,3.47217257,3.77549047,1.70778250,-2.84509865,1.08556982e-03,6.40254194,-1.99226591,-1,-0.9025669488336676
1.65783904e+04,8.99998772,-6.62224401e-10,3.47735351,3.78326529,1.69482333,-2.84509871,1.30461642e-03,6.41481327,-1.95423849,-1,-0.8994681156492628
1.70897961e+04,8.99998738,-6.51934951e-10,3.48350331,3.79122061,1.68198759,-2.84509898,1.57576711e-03,6.42715729,-1.91617904,-1,-0.8963359795445285
1.76068488e+04,8.99998705,-6.42985992e-10,3.49038426,3.79934042,1.66918845,-2.84509970,1.91267452e-03,6.43957348,-1.87807120,-1,-0.893169258036105
1.81299864e+04,8.99998671,-6.34805583e-10,3.49771905,3.80761150,1.65631368,-2.84510123,2.31274208e-03,6.45206876,-1.83983838,-1,-0.8899652691781317
1.86606560e+04,8.99998638,-6.26745815e-10,3.50518891,3.81601087,1.64324986,-2.84510390,2.81143285e-03,6.46467233,-1.80140429,-1,-0.8867151501164066
1.92001950e+04,8.99998604,-6.18269233e-10,3.51254217,3.82452015,1.62990794,-2.84510768,3.43904901e-03,6.47738460,-1.76268043,-1,-0.8834107098612193
1.97502743e+04,8.99998571,-6.09014841e-10,3.51955762,3.83311801,1.61621995,-2.84511235,4.23561810e-03,6.49022134,-1.72359628,-1,-0.8800417148813101
2.03120830e+04,8.99998537,-5.98748196e-10,3.52610374,3.84178893,1.60215115,-2.84511790,5.25553676e-03,6.50321086,-1.68407331,-1,-0.8766008824595678
2.08874512e+04,8.99998503,-5.87349984e-10,3.53206347,3.85051047,1.58768795,-2.84512313,6.57400496e-03,6.51636306,-1.64410668,-1,-0.8730770040344036
2.14772509e+04,8.99998469,-5.74879156e-10,3.53742400,3.85926971,1.57284974,-2.84512665,8.29711870e-03,6.52966542,-1.60365309,-1,-0.8694647389874332
2.20828867e+04,8.99998434,-5.61430593e-10,3.54217951,3.86804864,1.55766962,-2.84512651,1.05529836e-02,6.54310461,-1.56269882,-1,-0.8657554847583551
2.27050280e+04,8.99998400,-5.47256738e-10,3.54640474,3.87683988,1.54219975,-2.84512376,1.35167664e-02,6.55668542,-1.52122049,-1,-0.8619451415651207
2.33444741e+04,8.99998365,-5.32579481e-10,3.55018926,3.88563250,1.52650678,-2.84512039,1.74156533e-02,6.57040006,-1.47924276,-1,-0.8580288140450294
2.40019144e+04,8.99998331,-5.17721087e-10,3.55365253,3.89442278,1.51065786,-2.84511824,2.25061035e-02,6.58423772,-1.43680880,-1,-0.8540022799247853
2.46774412e+04,8.99998296,-5.02946042e-10,3.55694814,3.90321000,1.49473122,-2.84511307,2.90642190e-02,6.59819102,-1.39393918,-1,-0.8498649739072817
2.53710877e+04,8.99998262,-4.88545379e-10,3.56024007,3.91199714,1.47880290,-2.84511397,3.73687367e-02,6.61224458,-1.35067722,-1,-0.8456166926570482
2.60826599e+04,8.99998228,-4.74755862e-10,3.56368696,3.92079030,1.46294004,-2.84511982,4.75946004e-02,6.62639378,-1.30708908,-1,-0.8412586243391839
2.68114609e+04,8.99998194,-4.61765771e-10,3.56743667,3.92959811,1.44719926,-2.84512087,5.96259659e-02,6.64063616,-1.26322961,-1,-0.8367950371612027
