star_age,star_mass,star_mdot,log_L,log_Teff,log_R,log_surf_z,v_wind_Km_per_s,log_center_T,log_center_Rho,phase,x
1.06501552e+02,1.79999767e+01,-1.85692513e-07,4.26105827,3.65011933,2.35296762,-2.84509856,2.08382529e-03,5.71000164,-4.77680537,-1,-1.0
1.10726521e+02,1.79999759e+01,-1.83501788e-07,4.25831941,3.65030147,2.35123391,-2.84509857,2.07758288e-03,5.71167242,-4.77081181,-1,-0.9999215483371633
1.15102908e+02,1.79999752e+01,-1.81279202e-07,4.25551320,3.65048801,2.34945773,-2.84509857,2.07119426e-03,5.71338535,-4.76465155,-1,-0.9998402850575115
1.19641394e+02,1.79999743e+01,-1.79022305e-07,4.25263563,3.65067904,2.34763689,-2.84509857,2.06462575e-03,5.71514238,-4.75831487,-1,-0.9997560118300723
1.24353060e+02,1.79999735e+01,-1.76736451e-07,4.24968351,3.65087477,2.34576938,-2.84509858,2.05793419e-03,5.71694562,-4.75179284,-1,-0.999668522896442
1.29247166e+02,1.79999727e+01,-1.74431427e-07,4.24665468,3.65107529,2.34385390,-2.84509858,2.05122457e-03,5.71879679,-4.74507896,-1,-0.9995776463115963
1.34333015e+02,1.79999718e+01,-1.72100165e-07,4.24354498,3.65128007,2.34188949,-2.84509858,2.04439721e-03,5.72069715,-4.73816466,-1,-0.9994832093320619
1.39625820e+02,1.79999709e+01,-1.69754156e-07,4.24036070,3.65149154,2.33987442,-2.84509859,2.03760373e-03,5.72264910,-4.73104018,-1,-0.9993849294740748
1.45136442e+02,1.79999700e+01,-1.67398466e-07,4.23709406,3.65170806,2.33780807,-2.84509859,2.03088315e-03,5.72465376,-4.72369976,-1,-0.9992826050643182
1.50857918e+02,1.79999690e+01,-1.64958853e-07,4.23374920,3.65192924,2.33569327,-2.84509859,2.02329187e-03,5.72670746,-4.71615289,-1,-0.9991763653957952
1.56800974e+02,1.79999681e+01,-1.62512561e-07,4.23031868,3.65215374,2.33352902,-2.84509860,2.01571707e-03,5.72881277,-4.70839235,-1,-0.999066011301947
1.62977137e+02,1.79999671e+01,-1.60101589e-07,4.22682060,3.65238604,2.33131537,-2.84509860,2.00875519e-03,5.73096941,-4.70041297,-1,-0.998951328742785
1.69393617e+02,1.79999661e+01,-1.57661060e-07,4.22324059,3.65262243,2.32905259,-2.84509860,2.00150445e-03,5.73317793,-4.69220867,-1,-0.9988321838388677
1.76057210e+02,1.79999650e+01,-1.55147255e-07,4.21958346,3.65286407,2.32674074,-2.84509861,1.99342208e-03,5.73543903,-4.68378058,-1,-0.998708450398145
1.82985846e+02,1.79999640e+01,-1.52655597e-07,4.21584491,3.65311054,2.32437852,-2.84509861,1.98566883e-03,5.73775412,-4.67511498,-1,-0.9985797954860285
1.90196554e+02,1.79999629e+01,-1.50182422e-07,4.21203223,3.65336396,2.32196535,-2.84509863,1.97824987e-03,5.74012528,-4.66620214,-1,-0.9984459028982178
1.97688552e+02,1.79999618e+01,-1.47656996e-07,4.20813138,3.65361952,2.31950379,-2.84509864,1.97008277e-03,5.74255130,-4.65704905,-1,-0.9983067871553404
2.05471083e+02,1.79999606e+01,-1.45126666e-07,4.20415959,3.65388138,2.31699419,-2.84509865,1.96187853e-03,5.74503198,-4.64765228,-1,-0.9981622766280376
2.13552554e+02,1.79999595e+01,-1.42620565e-07,4.20011925,3.65414984,2.31443710,-2.84509866,1.95400124e-03,5.74756826,-4.63800710,-1,-0.9980122152102813
2.21942173e+02,1.79999583e+01,-1.40109921e-07,4.19600341,3.65442233,2.31183419,-2.84509866,1.94600405e-03,5.75015974,-4.62811557,-1,-0.9978564319226131
2.30649123e+02,1.79999571e+01,-1.37577831e-07,4.19181655,3.65469976,2.30918590,-2.84509867,1.93763690e-03,5.75280732,-4.61797427,-1,-0.997694756249789
2.39727374e+02,1.79999559e+01,-1.35035312e-07,4.18755396,3.65498311,2.30648791,-2.84509868,1.92901675e-03,5.75551829,-4.60755086,-1,-0.9975261860457002
2.49155568e+02,1.79999546e+01,-1.32524206e-07,4.18322285,3.65527152,2.30374554,-2.84509868,1.92072064e-03,5.75828788,-4.59686435,-1,-0.9973511178980174
2.58933768e+02,1.79999534e+01,-1.30024416e-07,4.17882983,3.65556532,2.30096143,-2.84509869,1.91242257e-03,5.76111417,-4.58592360,-1,-0.9971695506369205
2.69089297e+02,1.79999521e+01,-1.27561193e-07,4.17436640,3.65586227,2.29813581,-2.84509869,1.90447196e-03,5.76399972,-4.57471338,-1,-0.9969809769131758
2.79673602e+02,1.79999507e+01,-1.25061458e-07,4.16983900,3.65616548,2.29526570,-2.84509870,1.89576825e-03,5.76695101,-4.56320296,-1,-0.9967844414291945
2.90645312e+02,1.79999494e+01,-1.22609684e-07,4.16525019,3.65647194,2.29235837,-2.84509871,1.88751263e-03,5.76996035,-4.55142773,-1,-0.9965807123855822
3.02037106e+02,1.79999480e+01,-1.20179718e-07,4.16061476,3.65678538,2.28941378,-2.84509871,1.87937038e-03,5.77303135,-4.53937208,-1,-0.9963691829798059
3.13904929e+02,1.79999466e+01,-1.17731417e-07,4.15591774,3.65710290,2.28643023,-2.84509872,1.87060210e-03,5.77617028,-4.52700571,-1,-0.9961488143928172
3.26196699e+02,1.79999452e+01,-1.15309112e-07,4.15117066,3.65742373,2.28341503,-2.84509872,1.86192134e-03,5.77936853,-4.51436888,-1,-0.9959205737132509
3.39002768e+02,1.79999437e+01,-1.12949123e-07,4.14638058,3.65775094,2.28036557,-2.84509873,1.85385381e-03,5.78263703,-4.50141225,-1,-0.9956827832330246
3.52285173e+02,1.79999423e+01,-1.10597641e-07,4.14154521,3.65808084,2.27728808,-2.84509874,1.84552817e-03,5.78596932,-4.48816941,-1,-0.9954361478710326
3.66091987e+02,1.79999408e+01,-1.08275722e-07,4.13667525,3.65841550,2.27418378,-2.84509874,1.83724169e-03,5.78936926,-4.47461602,-1,-0.9951797749800654
3.80437231e+02,1.79999392e+01,-1.05988677e-07,4.13177691,3.65875493,2.27105575,-2.84509875,1.82907750e-03,5.79283692,-4.46075202,-1,-0.9949134042101029
3.95335846e+02,1.79999377e+01,-1.03735702e-07,4.12685364,3.65909848,2.26790701,-2.84509876,1.82100045e-03,5.79637240,-4.44657424,-1,-0.9946367581280336
4.10818246e+02,1.79999361e+01,-1.01510458e-07,4.12190810,3.65944531,2.26474059,-2.84509877,1.81285339e-03,5.79997898,-4.43207089,-1,-0.9943492719891525
4.26906910e+02,1.79999345e+01,-9.93541540e-08,4.11695007,3.65979588,2.26156043,-2.84509877,1.80535023e-03,5.80365891,-4.41724358,-1,-0.9940505283904135
4.43607652e+02,1.79999329e+01,-9.72159161e-08,4.11198916,3.66015085,2.25837004,-2.84509881,1.79761376e-03,5.80741175,-4.40209254,-1,-0.9937404193741092
4.60984114e+02,1.79999312e+01,-9.51353422e-08,4.10701476,3.66050517,2.25517419,-2.84509886,1.79016465e-03,5.81124347,-4.38659484,-1,-0.9934177631988523
4.78992466e+02,1.79999295e+01,-9.30913484e-08,4.10207100,3.66086852,2.25197561,-2.84509889,1.78291228e-03,5.81514953,-4.37077796,-1,-0.9930833737253797
4.97762447e+02,1.79999278e+01,-9.10890657e-08,4.09713617,3.66123279,2.24877966,-2.84509892,1.77563087e-03,5.81914319,-4.35458313,-1,-0.9927348418850602
5.17215676e+02,1.79999261e+01,-8.91543504e-08,4.09221796,3.66159711,2.24559191,-2.84509893,1.76892498e-03,5.82321505,-4.33805968,-1,-0.9923736231015394
5.37451948e+02,1.79999243e+01,-8.72612855e-08,4.08735991,3.66196971,2.24241769,-2.84509895,1.76232774e-03,5.82737615,-4.32116449,-1,-0.9919978643236608
5.58475868e+02,1.79999225e+01,-8.54190553e-08,4.08253774,3.66234142,2.23926317,-2.84509895,1.75588905e-03,5.83162439,-4.30390300,-1,-0.9916074800431263
5.80275810e+02,1.79999207e+01,-8.36439828e-08,4.07779157,3.66271990,2.23613315,-2.84509896,1.75011379e-03,5.83595747,-4.28628710,-1,-0.991202686138214
6.02998465e+02,1.79999188e+01,-8.19259342e-08,4.07311172,3.66309637,2.23304028,-2.84509896,1.74447564e-03,5.84039087,-4.26825864,-1,-0.9907807587657731
6.26567290e+02,1.79999169e+01,-8.02720602e-08,4.06853577,3.66347871,2.22998762,-2.84509897,1.73940612e-03,5.84491642,-4.24985923,-1,-0.9903431192204044
6.51036601e+02,1.79999150e+01,-7.86837354e-08,4.06406020,3.66386133,2.22698459,-2.84509897,1.73477082e-03,5.84953971,-4.23106938,-1,-0.9898887589312714
6.76518538e+02,1.79999130e+01,-7.71752848e-08,4.05972561,3.66424427,2.22405143,-2.84509898,1.73080177e-03,5.85426819,-4.21189140,-1,-0.9894155956181324
7.02942247e+02,1.79999110e+01,-7.57168832e-08,4.05553200,3.66463228,2.22117858,-2.84509898,1.72701981e-03,5.85910749,-4.19227805,-1,-0.9889249449389528
7.30417059e+02,1.79999089e+01,-7.43462685e-08,4.05150068,3.66501893,2.21838963,-2.84509899,1.72411762e-03,5.86406384,-4.17223056,-1,-0.9884147767726242
7.58987947e+02,1.79999068e+01,-7.30525204e-08,4.04768061,3.66540950,2.21569846,-2.84509900,1.72184782e-03,5.86914545,-4.15174318,-1,-0.9878842560345263
7.88617996e+02,1.79999047e+01,-7.18326429e-08,4.04406234,3.66579863,2.21311107,-2.84509901,1.72014412e-03,5.87435175,-4.13083376,-1,-0.9873340681836847
8.19472926e+02,1.79999025e+01,-7.07139847e-08,4.04072443,3.66619085,2.21065768,-2.84509901,1.71955537e-03,5.87970035,-4.10944001,-1,-0.986761136035494
8.51510331e+02,1.79999003e+01,-6.96912008e-08,4.03766582,3.66658106,2.20834794,-2.84509902,1.71993590e-03,5.88518749,-4.08758457,-1,-0.9861662470090367
8.84763963e+02,1.79998980e+01,-6.87610756e-08,4.03493809,3.66697324,2.20619972,-2.84509903,1.72119638e-03,5.89081945,-4.06525674,-1,-0.9855487743776968
9.19394021e+02,1.79998956e+01,-6.79488956e-08,4.03260240,3.66736204,2.20425428,-2.84509904,1.72368752e-03,5.89661882,-4.04239544,-1,-0.9849057434739835
9.55258921e+02,1.79998932e+01,-6.72378059e-08,4.03067925,3.66775452,2.20250773,-2.84509916,1.72728603e-03,5.90257046,-4.01905059,-1,-0.984239783311324
9.92669968e+02,1.79998907e+01,-6.66765912e-08,4.02929045,3.66814287,2.20103664,-2.84509922,1.73260855e-03,5.90872086,-3.99509977,-1,-0.9835451133988083
1.03138269e+03,1.79998881e+01,-6.62422882e-08,4.02841440,3.66853079,2.19982277,-2.84509922,1.73937610e-03,5.91504242,-3.97063966,-1,-0.9828262732336298
1.07174386e+03,1.79998855e+01,-6.59792673e-08,4.02824755,3.66891491,2.19897110,-2.84509920,1.74803451e-03,5.92159003,-3.94552958,-1,-0.9820768237345839
1.11348906e+03,1.79998827e+01,-6.58801896e-08,4.02876015,3.66929874,2.19845974,-2.84509917,1.75869098e-03,5.92833610,-3.91986948,-1,-0.981301674767704
1.15698367e+03,1.79998799e+01,-6.60158816e-08,4.03022731,3.66967876,2.19843329,-2.84509915,1.77222357e-03,5.93533022,-3.89353890,-1,-0.9804940417462704
1.20193370e+03,1.79998769e+01,-6.63811770e-08,4.03259742,3.67005595,2.19886396,-2.84509914,1.78871144e-03,5.94256698,-3.86659286,-1,-0.9796593836462799
1.24867766e+03,1.79998738e+01,-6.70857435e-08,4.03624092,3.67042747,2.19994267,-2.84509912,1.80963897e-03,5.95009529,-3.83889939,-1,-0.978791414818681
1.29696296e+03,1.79998705e+01,-6.81601652e-08,4.04118512,3.67079632,2.20167707,-2.84509911,1.83572080e-03,5.95788580,-3.81054650,-1,-0.9778948255003764
1.34685401e+03,1.79998670e+01,-6.97184106e-08,4.04772204,3.67115996,2.20421825,-2.84509910,1.86856773e-03,5.96597068,-3.78148660,-1,-0.9769684196893118
1.39830951e+03,1.79998633e+01,-7.19041750e-08,4.05617332,3.67151944,2.20772494,-2.84509908,1.91031593e-03,5.97437142,-3.75172928,-1,-0.9760129642677233
1.45115319e+03,1.79998594e+01,-7.48498932e-08,4.06680843,3.67187562,2.21233012,-2.84509906,1.96249053e-03,5.98308438,-3.72133303,-1,-0.9750317323187057
1.50512779e+03,1.79998553e+01,-7.87091859e-08,4.07988576,3.67223322,2.21815360,-2.84509903,2.02685520e-03,5.99209613,-3.69039297,-1,-0.9740295007944163
1.55993291e+03,1.79998508e+01,-8.37428046e-08,4.09576227,3.67259768,2.22536292,-2.84509900,2.10662090e-03,6.00138876,-3.65902008,-1,-0.9730118476954317
1.61515279e+03,1.79998459e+01,-9.01869682e-08,4.11458843,3.67297159,2.23402819,-2.84509896,2.20388449e-03,6.01092581,-3.62737345,-1,-0.971986493093388
1.67030999e+03,1.79998407e+01,-9.83299175e-08,4.13644056,3.67337855,2.24414034,-2.84509892,2.32221192e-03,6.02065978,-3.59564740,-1,-0.97096230236976
1.72495863e+03,1.79998350e+01,-1.08489674e-07,4.16123085,3.67384207,2.25560844,-2.84509888,2.46542600e-03,6.03054386,-3.56402379,-1,-0.969947554881728
1.77867310e+03,1.79998287e+01,-1.20999778e-07,4.18877452,3.67442446,2.26821549,-2.84509881,2.63961613e-03,6.04052304,-3.53267907,-1,-0.968950153601413
1.83054135e+03,1.79998220e+01,-1.36365668e-07,4.21922673,3.67530587,2.28167877,-2.84509878,2.86086479e-03,6.05044486,-3.50208159,-1,-0.9679870339996055
1.88062466e+03,1.79998146e+01,-1.55225826e-07,4.25168773,3.67682840,2.29486421,-2.84509875,3.17127852e-03,6.06033234,-3.47213963,-1,-0.9670570581938979
1.93538728e+03,1.79998055e+01,-1.74122612e-07,4.28064879,3.67916009,2.30468138,-2.84509871,3.56410267e-03,6.07146502,-3.43902511,-1,-0.9660401942594421
1.99515906e+03,1.79997945e+01,-1.90894250e-07,4.30527327,3.68221299,2.31088781,-2.84509869,4.02917669e-03,6.08386079,-3.40269621,-1,-0.9649303173510652
2.05707999e+03,1.79997821e+01,-2.06510556e-07,4.32748118,3.68607696,2.31426382,-2.84509866,4.62291809e-03,6.09689407,-3.36495920,-1,-0.9637805337851043
2.11924102e+03,1.79997688e+01,-2.20485593e-07,4.34759046,3.69106347,2.31434545,-2.84509865,5.42978885e-03,6.11013180,-3.32707943,-1,-0.9626262919037696
2.18028746e+03,1.79997549e+01,-2.32160346e-07,4.36556417,3.69721598,2.31102727,-2.84509864,6.53000245e-03,6.12321288,-3.29004454,-1,-0.9614927463728415
2.24070861e+03,1.79997405e+01,-2.41876317e-07,4.38186248,3.70409374,2.30542090,-2.84509863,7.95083696e-03,6.13623108,-3.25350887,-1,-0.96037081158752
2.30108512e+03,1.79997256e+01,-2.50146512e-07,4.39684694,3.71142460,2.29825142,-2.84509863,9.74197437e-03,6.14928884,-3.21714252,-1,-0.9592497057034827
2.36172219e+03,1.79997102e+01,-2.57093892e-07,4.41064677,3.71909100,2.28981855,-2.84509864,1.19896669e-02,6.16241159,-3.18086838,-1,-0.9581237615909828
2.42281693e+03,1.79996943e+01,-2.62704688e-07,4.42330368,3.72702679,2.28027540,-2.84509861,1.48210123e-02,6.17559166,-3.14466919,-1,-0.9569893191977783
2.48443951e+03,1.79996780e+01,-2.67011132e-07,4.43488649,3.73518894,2.26974253,-2.84509865,1.84117968e-02,6.18883403,-3.10847522,-1,-0.9558450755668104
2.54674286e+03,1.79996612e+01,-2.69980125e-07,4.44538756,3.74354206,2.25828681,-2.84509861,2.29525727e-02,6.20212565,-3.07235405,-1,-0.9546881910055756
2.60975094e+03,1.79996441e+01,-2.71708439e-07,4.45490147,3.75205908,2.24600973,-2.84509861,2.86766803e-02,6.21546321,-3.03626855,-1,-0.9535182206109651
2.67367677e+03,1.79996268e+01,-2.72168388e-07,4.46339968,3.76070931,2.23295837,-2.84509861,3.58820771e-02,6.22882353,-3.00030169,-1,-0.9523312089046745
2.73852473e+03,1.79996091e+01,-2.71497356e-07,4.47099827,3.76947333,2.21922963,-2.84509862,4.49891591e-02,6.24222916,-2.96437143,-1,-0.9511270745563356
2.80448633e+03,1.79995913e+01,-2.69769821e-07,4.47772241,3.77832599,2.20488639,-2.84509863,5.65648554e-02,6.25565365,-2.92856667,-1,-0.9499022614977385
2.87171148e+03,1.79995732e+01,-2.67061107e-07,4.48360568,3.78724722,2.18998555,-2.84509868,7.14095917e-02,6.26910208,-2.89290858,-1,-0.9486539861134823
2.94031437e+03,1.79995550e+01,-2.63493825e-07,4.48872395,3.79622074,2.17459764,-2.84509882,9.06986550e-02,6.28257884,-2.85740574,-1,-0.9473801280577422
3.01041314e+03,1.79995367e+01,-2.59181594e-07,4.49312437,3.80523391,2.15877151,-2.84509907,1.15625392e-01,6.29607809,-2.82212294,-1,-0.9460784936388137
3.08219015e+03,1.79995183e+01,-2.54203008e-07,4.49683955,3.81427116,2.14255460,-2.84509896,1.48321903e-01,6.30959583,-2.78712479,-1,-0.9447456966909673
3.15586117e+03,1.79994998e+01,-2.48650366e-07,4.49988048,3.82331652,2.12598436,-2.84509913,1.92230844e-01,6.32312809,-2.75247500,-1,-0.9433777306723115
3.23164406e+03,1.79994812e+01,-2.42567055e-07,4.50223347,3.83235576,2.10908237,-2.84509864,2.51309384e-01,6.33665550,-2.71824962,-1,-0.9419705502326279
3.30980699e+03,1.79994626e+01,-2.35962142e-07,4.50386399,3.84137220,2.09186474,-2.84509859,3.30893976e-01,6.35014137,-2.68449395,-1,-0.9405191758365821
3.39065041e+03,1.79994438e+01,-2.28863079e-07,4.50472508,3.85034597,2.07434776,-2.84509847,4.39269812e-01,6.36351298,-2.65118181,-1,-0.939018028555169
3.47444575e+03,1.79994250e+01,-2.21310898e-07,4.50477446,3.85925730,2.05654978,-2.84509839,5.86790789e-01,6.37665230,-2.61817590,-1,-0.9374620683194926
3.56143658e+03,1.79994061e+01,-2.13346898e-07,4.50398811,3.86808711,2.03849699,-2.84509840,7.83801510e-01,6.38942242,-2.58518764,-1,-0.9358467723812163
3.65179831e+03,1.79993873e+01,-2.05059657e-07,4.50239230,3.87681944,2.02023442,-2.84509852,1.03791013,6.40173009,-2.55184759,-1,-0.9341688836262221
3.74563909e+03,1.79993685e+01,-1.96578279e-07,4.50007026,3.88544447,2.00182335,-2.84509858,1.35086613,6.41360588,-2.51784821,-1,-0.932426393862891
3.84307328e+03,1.79993498e+01,-1.88047875e-07,4.49714049,3.89395861,1.98333017,-2.84509860,1.71300405,6.42520847,-2.48306932,-1,-0.9306171795887399
3.94417591e+03,1.79993313e+01,-1.79604146e-07,4.49374770,3.90236403,1.96482295,-2.84509861,2.10156074,6.43674602,-2.44756966,-1,-0.9287398476034254
4.04904975e+03,1.79993130e+01,-1.71380518e-07,4.49005785,3.91066551,1.94637506,-2.84509863,2.48825437,6.44837099,-2.41139967,-1,-0.9267924896142737
4.15800127e+03,1.79992948e+01,-1.63454582e-07,4.48615992,3.91885436,1.92804839,-2.84509866,2.85217994,6.46013364,-2.37465095,-1,-0.9247694149094453
4.27114519e+03,1.79992768e+01,-1.55932348e-07,4.48224893,3.92693622,1.90992918,-2.84509866,3.18447533,6.47205616,-2.33729416,-1,-0.9226684933017695
4.38861495e+03,1.79992590e+01,-1.48906480e-07,4.47852430,3.93491830,1.89210270,-2.84509871,3.48054474,6.48413732,-2.29934621,-1,-0.9204872470003111
4.51045592e+03,1.79992413e+01,-1.42465691e-07,4.47521830,3.94281507,1.87465617,-2.84509875,3.73742121,6.49637220,-2.26083805,-1,-0.918224833548725
4.63662588e+03,1.79992238e+01,-1.36690916e-07,4.47258604,3.95064777,1.85767464,-2.84509879,3.95346381,6.50875357,-2.22181769,-1,-0.9158820369123383
4.76690545e+03,1.79992064e+01,-1.31632422e-07,4.47085640,3.95844297,1.84121940,-2.84509880,4.13033940,6.52126717,-2.18236605,-1,-0.9134629306656065
4.90100602e+03,1.79991891e+01,-1.27310221e-07,4.47020599,3.96622734,1.82532547,-2.84509894,4.27624024,6.53389592,-2.14257137,-1,-0.9109728738855811
5.03859165e+03,1.79991719e+01,-1.23702568e-07,4.47071904,3.97402473,1.80998721,-2.84509907,4.39979492,6.54661989,-2.10253574,-1,-0.9084181045000702
5.17933885e+03,1.79991547e+01,-1.20743076e-07,4.47236915,3.98185332,1.79515510,-2.84509931,4.50769940,6.55942192,-2.06234310,-1,-0.9058046292580962
5.32299658e+03,1.79991376e+01,-1.18330055e-07,4.47502869,3.98972444,1.78074261,-2.84509956,4.60202460,6.57229184,-2.02205199,-1,-0.9031371096152673
5.46944868e+03,1.79991204e+01,-1.16349709e-07,4.47851589,3.99764372,1.76664765,-2.84509907,4.68244238,6.58522854,-1.98168202,-1,-0.9004177024975052
5.61869557e+03,1.79991038e+01,-1.04554909e-07,4.48262838,4.00561253,1.75276629,-2.84509920,4.32845449,6.59823567,-1.94124119,-1,-0.8976464001060075
5.77073591e+03,1.79990899e+01,-8.30684863e-08,4.48719259,4.01363275,1.73900795,-2.84509931,3.52025352,6.61132653,-1.90069161,-1,-0.8948232273226676
5.92587537e+03,1.79990790e+01,-6.17987415e-08,4.49201295,4.02169430,1.72529503,-2.84509927,2.67014772,6.62449871,-1.86005763,-1,-0.8919425082905078
6.08409560e+03,1.79990712e+01,-4.06740792e-08,4.49700757,4.02980024,1.71158045,-2.84509950,1.78599830,6.63776532,-1.81928667,-1,-0.8890045837429188
6.24573489e+03,1.79990667e+01,-1.96635614e-08,4.50205701,4.03794001,1.69782564,-2.84509973,8.75486498e-01,6.65112110,-1.77840739,-1,-0.8860031721159362
6.41084340e+03,1.79990651e+01,-6.79408912e-09,4.50713442,4.04611335,1.68401767,-2.84509988,3.06413895e-01,6.66457239,-1.73738964,-1,-0.8829373420097302
6.57955407e+03,1.79990639e+01,-7.11463735e-09,4.51221395,4.05431714,1.67014985,-2.84510023,3.24906873e-01,6.67811749,-1.69623567,-1,-0.8798046249176542
6.75197569e+03,1.79990626e+01,-7.45069583e-09,4.51729007,4.06254929,1.65622361,-2.84510040,3.44544861e-01,6.69175025,-1.65495823,-1,-0.8766030007642001
6.92820028e+03,1.79990613e+01,-7.80307666e-09,4.52236666,4.07080832,1.64224384,-2.84510033,3.65262083e-01,6.70546493,-1.61356987,-1,-0.8733307608688984
7.10830901e+03,1.79990598e+01,-8.17291900e-09,4.52745226,4.07909315,1.62821699,-2.84510014,3.86964591e-01,6.71925666,-1.57207999,-1,-0.8699863980203418
7.29239746e+03,1.79990583e+01,-8.56159505e-09,4.53255656,4.08740315,1.61414913,-2.84510001,4.09732482e-01,6.73312025,-1.53050047,-1,-0.8665681374339262
7.48053254e+03,1.79990566e+01,-8.97044925e-09,4.53768746,4.09573781,1.60004525,-2.84509996,4.33902457e-01,6.74704921,-1.48885223,-1,-0.8630747366861544
7.67278325e+03,1.79990549e+01,-9.40073728e-09,4.54284797,4.10409659,1.58590796,-2.84509994,4.59888966e-01,6.76103985,-1.44714076,-1,-0.8595049145452031
