star_age,star_mass,star_mdot,log_Teff,log_R,log_surf_z,surface_h1,surface_he3,log_center_T,log_center_Rho,phase,x
1.95834980e+02,9.99987704e+01,-6.26588245e-06,4.31352351,1.95971349,-2.84509848,7.47426483e-01,4.16806609e-05,6.94242735,-1.78912465,-1,-1.0
2.00512030e+02,9.99987404e+01,-6.28799283e-06,4.31438831,1.95809585,-2.84509848,7.47426483e-01,4.16806609e-05,6.94389784,-1.78484929,-1,-0.9996303663284531
2.05189080e+02,9.99987105e+01,-6.31010322e-06,4.31525311,1.95647821,-2.84509848,7.47426483e-01,4.16806609e-05,6.94536832,-1.78057394,-1,-0.9992607326569064
2.09866130e+02,9.99986805e+01,-6.33221360e-06,4.31611791,1.95486057,-2.84509848,7.47426483e-01,4.16806609e-05,6.94683881,-1.77629858,-1,-0.9988910989853595
2.14543180e+02,9.99986505e+01,-6.35432399e-06,4.31698270,1.95324293,-2.84509848,7.47426483e-01,4.16806609e-05,6.94830929,-1.77202323,-1,-0.9985214653138127
2.19220229e+02,9.99986206e+01,-6.37643437e-06,4.31784750,1.95162530,-2.84509848,7.47426483e-01,4.16806609e-05,6.94977977,-1.76774787,-1,-0.9981518317212973
2.23897279e+02,9.99985906e+01,-6.39854476e-06,4.31871230,1.95000766,-2.84509848,7.47426483e-01,4.16806609e-05,6.95125026,-1.76347251,-1,-0.9977821980497504
2.29031746e+02,9.99985572e+01,-6.42325850e-06,4.31964761,1.94827107,-2.84509848,7.47426483e-01,4.16806609e-05,6.95284611,-1.75883366,-1,-0.997376414085789
2.34337459e+02,9.99985225e+01,-6.44894688e-06,4.32060933,1.94648996,-2.84509848,7.47426483e-01,4.16806609e-05,6.95448889,-1.75405872,-1,-0.9969570963157494
2.39643172e+02,9.99984878e+01,-6.47463526e-06,4.32157104,1.94470884,-2.84509848,7.47426483e-01,4.16806608e-05,6.95613167,-1.74928377,-1,-0.9965377785457098
2.44948885e+02,9.99984531e+01,-6.50032365e-06,4.32253276,1.94292772,-2.84509848,7.47426483e-01,4.16806608e-05,6.95777445,-1.74450883,-1,-0.9961184607756702
2.50254598e+02,9.99984184e+01,-6.52601203e-06,4.32349447,1.94114661,-2.84509848,7.47426483e-01,4.16806608e-05,6.95941722,-1.73973389,-1,-0.9956991430056306
2.55824329e+02,9.99983816e+01,-6.55336564e-06,4.32449980,1.93928881,-2.84509848,7.47426483e-01,4.16806608e-05,6.96112930,-1.73475738,-1,-0.9952589595312059
2.61735307e+02,9.99983422e+01,-6.58287157e-06,4.32556151,1.93733191,-2.84509848,7.47426483e-01,4.16806608e-05,6.96293094,-1.72952035,-1,-0.9947918068386812
2.67646284e+02,9.99983027e+01,-6.61237750e-06,4.32662322,1.93537501,-2.84509848,7.47426483e-01,4.16806608e-05,6.96473258,-1.72428332,-1,-0.9943246542251879
2.73557262e+02,9.99982632e+01,-6.64188343e-06,4.32768493,1.93341810,-2.84509848,7.47426483e-01,4.16806608e-05,6.96653422,-1.71904629,-1,-0.9938575015326633
2.79468239e+02,9.99982237e+01,-6.67138936e-06,4.32874664,1.93146120,-2.84509848,7.47426483e-01,4.16806608e-05,6.96833587,-1.71380926,-1,-0.99339034891917
2.85871567e+02,9.99981803e+01,-6.69973654e-06,4.32988366,1.92936968,-2.84509848,7.47426483e-01,4.16806608e-05,6.97026126,-1.70821341,-1,-0.9928842851313638
2.92437605e+02,9.99981355e+01,-6.72770078e-06,4.33104557,1.92723368,-2.84509848,7.47426483e-01,4.16806608e-05,6.97222756,-1.70249898,-1,-0.9923653621492585
2.99003643e+02,9.99980907e+01,-6.75566502e-06,4.33220748,1.92509767,-2.84509848,7.47426483e-01,4.16806608e-05,6.97419385,-1.69678455,-1,-0.9918464391671531
3.05569680e+02,9.99980459e+01,-6.78362926e-06,4.33336938,1.92296166,-2.84509848,7.47426483e-01,4.16806608e-05,6.97616015,-1.69107012,-1,-0.9913275162640791
3.12135718e+02,9.99980011e+01,-6.81159350e-06,4.33453129,1.92082565,-2.84509848,7.47426483e-01,4.16806608e-05,6.97812644,-1.68535569,-1,-0.9908085932819738
3.19240765e+02,9.99979518e+01,-6.84246763e-06,4.33577221,1.91854075,-2.84509848,7.47426483e-01,4.16806608e-05,6.98022081,-1.67926919,-1,-0.9902470716798693
3.26586925e+02,9.99979004e+01,-6.87464344e-06,4.33704848,1.91618925,-2.84509848,7.47426484e-01,4.16806608e-05,6.98237247,-1.67301626,-1,-0.9896664945869217
3.33933084e+02,9.99978490e+01,-6.90681924e-06,4.33832475,1.91383774,-2.84509848,7.47426484e-01,4.16806608e-05,6.98452412,-1.66676332,-1,-0.9890859175730056
3.41279244e+02,9.99977976e+01,-6.93899504e-06,4.33960101,1.91148624,-2.84509848,7.47426484e-01,4.16806608e-05,6.98667578,-1.66051039,-1,-0.988505340480058
3.48625404e+02,9.99977462e+01,-6.97117085e-06,4.34087728,1.90913473,-2.84509848,7.47426484e-01,4.16806608e-05,6.98882744,-1.65425745,-1,-0.9879247633871104
3.56177300e+02,9.99976930e+01,-7.00827585e-06,4.34218385,1.90672361,-2.84509848,7.47426484e-01,4.16806607e-05,6.99102651,-1.64786652,-1,-0.9873279266961151
3.64305695e+02,9.99976344e+01,-7.05919308e-06,4.34357535,1.90414541,-2.84509848,7.47426484e-01,4.16806607e-05,6.99335845,-1.64108888,-1,-0.9866855284990395
3.72434090e+02,9.99975758e+01,-7.11011031e-06,4.34496685,1.90156722,-2.84509848,7.47426484e-01,4.16806607e-05,6.99569039,-1.63431124,-1,-0.9860431303019638
3.80562485e+02,9.99975172e+01,-7.16102754e-06,4.34635835,1.89898903,-2.84509848,7.47426484e-01,4.16806607e-05,6.99802233,-1.62753360,-1,-0.9854007321048881
3.88769116e+02,9.99974579e+01,-7.21180926e-06,4.34776049,1.89639018,-2.84509848,7.47426484e-01,4.16806607e-05,7.00037195,-1.62070460,-1,-0.9847521508095074
3.97581708e+02,9.99973929e+01,-7.26154134e-06,4.34924503,1.89363131,-2.84509848,7.47426484e-01,4.16806607e-05,7.00285845,-1.61347779,-1,-0.9840556795858079
4.06394301e+02,9.99973278e+01,-7.31127342e-06,4.35072957,1.89087244,-2.84509848,7.47426484e-01,4.16806607e-05,7.00534495,-1.60625097,-1,-0.9833592082830769
4.15206893e+02,9.99972627e+01,-7.36100551e-06,4.35221411,1.88811357,-2.84509848,7.47426484e-01,4.16806607e-05,7.00783145,-1.59902416,-1,-0.9826627370593773
4.24383677e+02,9.99971941e+01,-7.41146704e-06,4.35374625,1.88525935,-2.84509848,7.47426484e-01,4.16806607e-05,7.01039607,-1.59157089,-1,-0.981937483242781
4.33839572e+02,9.99971228e+01,-7.46248762e-06,4.35531487,1.88233207,-2.84509848,7.47426484e-01,4.16806607e-05,7.01302057,-1.58394408,-1,-0.981190170901324
4.43295466e+02,9.99970514e+01,-7.51350820e-06,4.35688349,1.87940479,-2.84509848,7.47426484e-01,4.16806607e-05,7.01564506,-1.57631727,-1,-0.9804428586388985
4.52974581e+02,9.99969778e+01,-7.56517704e-06,4.35848209,1.87641595,-2.84509848,7.47426485e-01,4.16806607e-05,7.01831527,-1.56855745,-1,-0.9796779049149114
4.63055249e+02,9.99969001e+01,-7.61801202e-06,4.36013463,1.87331637,-2.84509848,7.47426485e-01,4.16806606e-05,7.02106773,-1.56055835,-1,-0.978881215906993
4.73135917e+02,9.99968225e+01,-7.67084701e-06,4.36178717,1.87021680,-2.84509848,7.47426485e-01,4.16806606e-05,7.02382019,-1.55255926,-1,-0.9780845268990745
4.83466365e+02,9.99967423e+01,-7.72122060e-06,4.36347272,1.86704832,-2.84509848,7.47426485e-01,4.16806606e-05,7.02662086,-1.54442045,-1,-0.9772680974354248
4.94224246e+02,9.99966577e+01,-7.76738215e-06,4.36521475,1.86376196,-2.84509848,7.47426485e-01,4.16806606e-05,7.02950400,-1.53604258,-1,-0.9764178873559743
5.04982128e+02,9.99965732e+01,-7.81354370e-06,4.36695679,1.86047559,-2.84509848,7.47426485e-01,4.16806606e-05,7.03238715,-1.52766470,-1,-0.9755676771974925
5.15746858e+02,9.99964891e+01,-7.84778686e-06,4.36869958,1.85718757,-2.84509848,7.47426485e-01,4.16806606e-05,7.03527152,-1.51928326,-1,-0.9747169258321853
5.27315601e+02,9.99964574e+01,-6.48287400e-06,4.37053182,1.85370560,-2.84509848,7.47426485e-01,4.16806606e-05,7.03830002,-1.51048224,-1,-0.9738026322175625
5.38884344e+02,9.99964256e+01,-5.11796115e-06,4.37236405,1.85022363,-2.84509848,7.47426485e-01,4.16806606e-05,7.04132852,-1.50168123,-1,-0.9728883386029397
5.50453086e+02,9.99963939e+01,-3.75304830e-06,4.37419629,1.84674166,-2.84509848,7.47426485e-01,4.16806606e-05,7.04435703,-1.49288022,-1,-0.9719740450673482
5.62232861e+02,9.99963693e+01,-2.53409451e-06,4.37604988,1.84321087,-2.84509848,7.47426486e-01,4.16806605e-05,7.04742232,-1.48397166,-1,-0.9710430733045393
5.74617601e+02,9.99963648e+01,-1.73356041e-06,4.37796470,1.83954010,-2.84509848,7.47426486e-01,4.16806605e-05,7.05059308,-1.47475480,-1,-0.9700642903286565
5.87002341e+02,9.99963603e+01,-9.33026305e-07,4.37987952,1.83586934,-2.84509848,7.47426486e-01,4.16806605e-05,7.05376383,-1.46553795,-1,-0.9690855073527737
5.99591966e+02,9.99963556e+01,-3.65629662e-07,4.38181553,1.83215247,-2.84509848,7.47426486e-01,4.16806605e-05,7.05697009,-1.45621775,-1,-0.9680905320345394
6.12690845e+02,9.99963505e+01,-3.77707845e-07,4.38380420,1.82832101,-2.84509848,7.47426486e-01,4.16806605e-05,7.06026460,-1.44664067,-1,-0.9670553096747362
6.25789724e+02,9.99963453e+01,-3.89786028e-07,4.38579287,1.82448954,-2.84509848,7.47426486e-01,4.16806605e-05,7.06355910,-1.43706360,-1,-0.9660200873149329
6.39336493e+02,9.99963397e+01,-4.02180575e-07,4.38783227,1.82054630,-2.84509848,7.47426486e-01,4.16806605e-05,7.06692582,-1.42727599,-1,-0.9649494675945822
6.53105002e+02,9.99963338e+01,-4.14731744e-07,4.38989679,1.81654772,-2.84509848,7.47426487e-01,4.16806604e-05,7.07032830,-1.41738415,-1,-0.9638613234581297
6.67031768e+02,9.99963278e+01,-4.27471263e-07,4.39197591,1.81251573,-2.84509848,7.47426487e-01,4.16806604e-05,7.07375502,-1.40742140,-1,-0.9627606720540708
6.81462124e+02,9.99963213e+01,-4.40810127e-07,4.39410151,1.80837740,-2.84509848,7.47426487e-01,4.16806604e-05,7.07725889,-1.39723303,-1,-0.9616202212421258
6.95892481e+02,9.99963147e+01,-4.54148990e-07,4.39622712,1.80423907,-2.84509848,7.47426487e-01,4.16806604e-05,7.08076277,-1.38704465,-1,-0.9604797703511493
7.10990768e+02,9.99963074e+01,-4.66167551e-07,4.39841669,1.79995644,-2.84509848,7.47426487e-01,4.16806604e-05,7.08436190,-1.37657912,-1,-0.9592865320368534
7.26137984e+02,9.99963000e+01,-4.78089394e-07,4.40061094,1.79566324,-2.84509848,7.47426487e-01,4.16806604e-05,7.08796800,-1.36609329,-1,-0.9580894267966288
7.41537968e+02,9.99962923e+01,-4.90321809e-07,4.40282604,1.79132032,-2.84509848,7.47426487e-01,4.16806604e-05,7.09160653,-1.35551230,-1,-0.9568723449549374
7.57545110e+02,9.99962839e+01,-5.03300230e-07,4.40509120,1.78685797,-2.84509848,7.47426488e-01,4.16806604e-05,7.09532297,-1.34470277,-1,-0.9556072785843767
7.73552252e+02,9.99962755e+01,-5.16278651e-07,4.40735636,1.78239562,-2.84509848,7.47426488e-01,4.16806604e-05,7.09903942,-1.33389324,-1,-0.9543422122138159
7.89822066e+02,9.99962667e+01,-5.31277887e-07,4.40963729,1.77789186,-2.84509848,7.47426488e-01,4.16806603e-05,7.10278931,-1.32298503,-1,-0.9530563865150947
8.06708818e+02,9.99962570e+01,-5.51023385e-07,4.41195527,1.77329087,-2.84509848,7.47426488e-01,4.16806604e-05,7.10661778,-1.31184506,-1,-0.9517218033607003
8.23595569e+02,9.99962474e+01,-5.70768884e-07,4.41427324,1.76868988,-2.84509848,7.47426488e-01,4.16806604e-05,7.11044625,-1.30070508,-1,-0.9503872202853372
8.41152246e+02,9.99962367e+01,-5.89898051e-07,4.41664225,1.76397468,-2.84509848,7.47426489e-01,4.16806604e-05,7.11436131,-1.28931170,-1,-0.9489996920400391
8.58804297e+02,9.99962258e+01,-6.08939475e-07,4.41901853,1.75924323,-2.84509848,7.47426489e-01,4.16806604e-05,7.11828869,-1.27788225,-1,-0.9476046262568079
8.76969656e+02,9.99962141e+01,-6.28201647e-07,4.42143220,1.75442500,-2.84509849,7.47426489e-01,4.16806604e-05,7.12227688,-1.26627463,-1,-0.9461689930388315
8.95350059e+02,9.99962021e+01,-6.47556298e-07,4.42386153,1.74957041,-2.84509849,7.47426489e-01,4.16806605e-05,7.12629055,-1.25459238,-1,-0.9447163645988106
9.14252886e+02,9.99961893e+01,-6.65181997e-07,4.42632647,1.74463542,-2.84509849,7.47426490e-01,4.16806606e-05,7.13036122,-1.24274319,-1,-0.9432224482740708
9.33422104e+02,9.99961760e+01,-6.81926080e-07,4.42880957,1.73965943,-2.84509849,7.47426490e-01,4.16806607e-05,7.13446095,-1.23080887,-1,-0.9417074787035036
9.52887690e+02,9.99961622e+01,-6.99022510e-07,4.43130973,1.73464197,-2.84509849,7.47426490e-01,4.16806609e-05,7.13858893,-1.21879101,-1,-0.9401690867637145
9.73006226e+02,9.99961472e+01,-7.16895219e-07,4.43384750,1.72953315,-2.84509849,7.47426490e-01,4.16806612e-05,7.14277912,-1.20658908,-1,-0.9385790912905365
9.93124762e+02,9.99961323e+01,-7.34767929e-07,4.43638527,1.72442433,-2.84509849,7.47426491e-01,4.16806615e-05,7.14696931,-1.19438715,-1,-0.9369890958173586
1.01385851e+03,9.99961162e+01,-7.58152873e-07,4.43894207,1.71925665,-2.84509849,7.47426491e-01,4.16806619e-05,7.15121896,-1.18200675,-1,-0.9353504792966529
1.03496117e+03,9.99960993e+01,-7.84843147e-07,4.44151027,1.71405367,-2.84509849,7.47426491e-01,4.16806625e-05,7.15550425,-1.16951932,-1,-0.9336827071549816
1.05644306e+03,9.99960817e+01,-8.10787332e-07,4.44409680,1.70881056,-2.84509849,7.47426491e-01,4.16806632e-05,7.15982815,-1.15691880,-1,-0.9319849639466633
1.07839607e+03,9.99960630e+01,-8.35804699e-07,4.44670608,1.70351761,-2.84509849,7.47426492e-01,4.16806642e-05,7.16420000,-1.14417778,-1,-0.93024998747906
1.10073433e+03,9.99960435e+01,-8.60777143e-07,4.44933853,1.69817285,-2.84509849,7.47426492e-01,4.16806655e-05,7.16860635,-1.13133405,-1,-0.9284845641759591
1.12348394e+03,9.99960232e+01,-8.85701624e-07,4.45199572,1.69277277,-2.84509849,7.47426492e-01,4.16806671e-05,7.17304954,-1.11838065,-1,-0.9266866313185901
1.14678077e+03,9.99960017e+01,-9.08358929e-07,4.45467816,1.68731939,-2.84509849,7.47426493e-01,4.16806698e-05,7.17753829,-1.10529296,-1,-0.9248454509146384
1.17040818e+03,9.99959794e+01,-9.29646604e-07,4.45737585,1.68183381,-2.84509849,7.47426493e-01,4.16806729e-05,7.18205456,-1.09212414,-1,-0.9229781443202163
1.19454509e+03,9.99959561e+01,-9.51465837e-07,4.46008827,1.67631201,-2.84509849,7.47426493e-01,4.16806778e-05,7.18660805,-1.07884373,-1,-0.9210705712425081
1.21924726e+03,9.99959315e+01,-9.73874817e-07,4.46281700,1.67075003,-2.84509849,7.47426494e-01,4.16806846e-05,7.19120282,-1.06543954,-1,-0.919118324892293
1.24395712e+03,9.99959068e+01,-9.96356023e-07,4.46554593,1.66518744,-2.84509849,7.47426494e-01,4.16806914e-05,7.19579815,-1.05203367,-1,-0.9171654707908384
1.26974938e+03,9.99958794e+01,-1.02900064e-06,4.46830221,1.65954047,-2.84509849,7.47426494e-01,4.16807037e-05,7.20047092,-1.03839373,-1,-0.91512707313392
1.29554164e+03,9.99958521e+01,-1.06164526e-06,4.47105848,1.65389351,-2.84509849,7.47426495e-01,4.16807161e-05,7.20514369,-1.02475379,-1,-0.9130886754770017
1.32228381e+03,9.99958222e+01,-1.09180320e-06,4.47384201,1.64819235,-2.84509849,7.47426495e-01,4.16807369e-05,7.20989320,-1.01088540,-1,-0.9109752051309012
1.34918020e+03,9.99957919e+01,-1.12185541e-06,4.47663144,1.64247874,-2.84509849,7.47426495e-01,4.16807599e-05,7.21465369,-9.96984544e-01,-1,-0.9088495465668373
1.37683748e+03,9.99957596e+01,-1.15151058e-06,4.47945059,1.63670217,-2.84509849,7.47426496e-01,4.16807942e-05,7.21946768,-9.82925485e-01,-1,-0.9066637538232493
1.40490427e+03,9.99957262e+01,-1.17925224e-06,4.48228398,1.63089954,-2.84509849,7.47426496e-01,4.16808391e-05,7.22430839,-9.68786873e-01,-1,-0.9044455969431147
1.43354759e+03,9.99956913e+01,-1.20429985e-06,4.48513740,1.62506021,-2.84509849,7.47426496e-01,4.16808992e-05,7.22918673,-9.54536259e-01,-1,-0.9021818761069272
1.46267015e+03,9.99956550e+01,-1.22975019e-06,4.48800132,1.61919741,-2.84509850,7.47426497e-01,4.16809810e-05,7.23409101,-9.40207562e-01,-1,-0.8998802802767261
1.49252147e+03,9.99956168e+01,-1.25581300e-06,4.49088121,1.61329891,-2.84509850,7.47426497e-01,4.16810958e-05,7.23903474,-9.25760122e-01,-1,-0.8975210895449359
1.52246388e+03,9.99955783e+01,-1.28269263e-06,4.49376185,1.60739687,-2.84509850,7.47426497e-01,4.16812162e-05,7.24398347,-9.11297264e-01,-1,-0.895154699845604
1.55357261e+03,9.99955363e+01,-1.32003277e-06,4.49665204,1.60144946,-2.84509850,7.47426498e-01,4.16814076e-05,7.24899616,-8.96636972e-01,-1,-0.8926961342781932
1.58485250e+03,9.99954937e+01,-1.35679275e-06,4.49954727,1.59549317,-2.84509850,7.47426498e-01,4.16816159e-05,7.25401960,-8.81944752e-01,-1,-0.8902240417014021
1.61703004e+03,9.99954483e+01,-1.39051004e-06,4.50246890,1.58949026,-2.84509850,7.47426498e-01,4.16819126e-05,7.25909940,-8.67085091e-01,-1,-0.887681006614853
1.64964971e+03,9.99954016e+01,-1.42390045e-06,4.50539753,1.58347371,-2.84509850,7.47426499e-01,4.16822709e-05,7.26420482,-8.52148798e-01,-1,-0.8851030293884505
1.68288457e+03,9.99953529e+01,-1.45683601e-06,4.50833591,1.57743816,-2.84509850,7.47426499e-01,4.16827149e-05,7.26934587,-8.37105876e-01,-1,-0.8824764328532105
1.71695282e+03,9.99953016e+01,-1.48564964e-06,4.51130186,1.57135714,-2.84509850,7.47426499e-01,4.16833495e-05,7.27452737,-8.21941599e-01,-1,-0.8797839723640828
1.75128999e+03,9.99952495e+01,-1.51313321e-06,4.51427669,1.56526146,-2.84509850,7.47426500e-01,4.16840455e-05,7.27972193,-8.06738164e-01,-1,-0.8770702587587915
1.78678548e+03,9.99951938e+01,-1.54134480e-06,4.51726095,1.55914503,-2.84509850,7.47426500e-01,4.16851238e-05,7.28496653,-7.91382744e-01,-1,-0.8742650015363856
1.82252576e+03,9.99951372e+01,-1.56971026e-06,4.52024720,1.55302421,-2.84509850,7.47426500e-01,4.16862828e-05,7.29022172,-7.75995203e-01,-1,-0.8714403982247872
1.85915658e+03,9.99950777e+01,-1.60505535e-06,4.52322729,1.54689797,-2.84509850,7.47426500e-01,4.16877979e-05,7.29551667,-7.60483829e-01,-1,-0.8685454143164753
1.89638142e+03,9.99950161e+01,-1.64505604e-06,4.52620325,1.54076811,-2.84509850,7.47426500e-01,4.16895505e-05,7.30083816,-7.44889854e-01,-1,-0.8656034841934398
1.93452375e+03,9.99949512e+01,-1.68152103e-06,4.52920549,1.53459478,-2.84509850,7.47426500e-01,4.16918683e-05,7.30620456,-7.29161732e-01,-1,-0.8625890435782549
1.97304568e+03,9.99948850e+01,-1.71679948e-06,4.53221777,1.52840444,-2.84509850,7.47426499e-01,4.16944386e-05,7.31158900,-7.13379497e-01,-1,-0.8595446026548161
2.01265729e+03,9.99948150e+01,-1.75105614e-06,4.53525182,1.52217367,-2.84509850,7.47426499e-01,4.16978950e-05,7.31702048,-6.97453907e-01,-1,-0.856414042827536
2.05285463e+03,9.99947428e+01,-1.78254671e-06,4.53830246,1.51591728,-2.84509851,7.47426498e-01,4.17020597e-05,7.32247398,-6.81463543e-01,-1,-0.8532371919555941
2.09372254e+03,9.99946683e+01,-1.81087047e-06,4.54137211,1.50963157,-2.84509851,7.47426497e-01,4.17070355e-05,7.32795266,-6.65399019e-01,-1,-0.8500073450175145
2.13552386e+03,9.99945906e+01,-1.83950747e-06,4.54445210,1.50332416,-2.84509851,7.47426495e-01,4.17135501e-05,7.33346016,-6.49245696e-01,-1,-0.8467037294078666
2.17797586e+03,9.99945106e+01,-1.86836285e-06,4.54753931,1.49700162,-2.84509851,7.47426493e-01,4.17211376e-05,7.33898776,-6.33030468e-01,-1,-0.843348689666041
2.22115101e+03,9.99944278e+01,-1.90193872e-06,4.55062029,1.49067739,-2.84509851,7.47426491e-01,4.17300691e-05,7.34453979,-6.16737619e-01,-1,-0.8399364983886152
2.26532116e+03,9.99943414e+01,-1.94200956e-06,4.55369271,1.48435083,-2.84509851,7.47426488e-01,4.17408499e-05,7.35012545,-6.00337972e-01,-1,-0.83644567089751
2.31034485e+03,9.99942517e+01,-1.97837841e-06,4.55678968,1.47798436,-2.84509851,7.47426484e-01,4.17539863e-05,7.35574315,-5.83843024e-01,-1,-0.8328873869704008
2.35586076e+03,9.99941601e+01,-2.01261235e-06,4.55990082,1.47159488,-2.84509851,7.47426480e-01,4.17684811e-05,7.36137932,-5.67293117e-01,-1,-0.8292902022220884
2.40270929e+03,9.99940634e+01,-2.04506396e-06,4.56303704,1.46515938,-2.84509851,7.47426474e-01,4.17875641e-05,7.36705904,-5.50612099e-01,-1,-0.8255876986887776
2.45016197e+03,9.99939645e+01,-2.07477095e-06,4.56619033,1.45869771,-2.84509851,7.47426468e-01,4.18096425e-05,7.37275539,-5.33883104e-01,-1,-0.8218374483529598
2.49841438e+03,9.99938626e+01,-2.10083211e-06,4.56936622,1.45220137,-2.84509851,7.47426460e-01,4.18356919e-05,7.37847373,-5.17090677e-01,-1,-0.8180239942591865
2.54775708e+03,9.99937568e+01,-2.12690851e-06,4.57255041,1.44568696,-2.84509851,7.47426449e-01,4.18686933e-05,7.38421682,-5.00223404e-01,-1,-0.8141243730524359
2.59782237e+03,9.99936484e+01,-2.15299500e-06,4.57574009,1.43916058,-2.84509851,7.47426438e-01,4.19063021e-05,7.38997631,-4.83306527e-01,-1,-0.8101676445676524
2.64887196e+03,9.99935362e+01,-2.18355960e-06,4.57891598,1.43264305,-2.84509852,7.47426424e-01,4.19504271e-05,7.39576164,-4.66309089e-01,-1,-0.8061331255048544
2.70095597e+03,9.99934202e+01,-2.21883033e-06,4.58207737,1.42613481,-2.84509852,7.47426408e-01,4.20014002e-05,7.40157414,-4.49226987e-01,-1,-0.8020168548117506
