star_age,star_mass,star_mdot,log_L,log_Teff,log_R,log_surf_z,v_wind_Km_per_s,log_center_T,log_center_Rho,phase,x
3.87024407e+02,1.44998222e+02,-4.91984430e-06,6.42275025,4.57419121,1.58566986,-2.84509850,1.19377572e+02,7.39791654,-5.51512302e-01,-1,-1.0
3.93472188e+02,1.44998190e+02,-4.93032835e-06,6.42256466,4.57481703,1.58432542,-2.84509850,1.20053569e+02,7.39887331,-5.48730985e-01,-1,-0.9991776487357261
3.99919969e+02,1.44998158e+02,-4.94081240e-06,6.42237907,4.57544285,1.58298099,-2.84509850,1.20729566e+02,7.39983008,-5.45949669e-01,-1,-0.9983552974714522
4.06367750e+02,1.44998126e+02,-4.95129645e-06,6.42219348,4.57606867,1.58163655,-2.84509850,1.21405564e+02,7.40078685,-5.43168353e-01,-1,-0.9975329462071783
4.12815531e+02,1.44998093e+02,-4.96178049e-06,6.42200789,4.57669449,1.58029212,-2.84509850,1.22081561e+02,7.40174361,-5.40387036e-01,-1,-0.9967105949429044
4.19263312e+02,1.44998061e+02,-4.97226454e-06,6.42182231,4.57732031,1.57894769,-2.84509850,1.22757558e+02,7.40270038,-5.37605720e-01,-1,-0.9958882436786305
4.25711093e+02,1.44998029e+02,-4.98274859e-06,6.42163672,4.57794613,1.57760325,-2.84509850,1.23433555e+02,7.40365715,-5.34824403e-01,-1,-0.9950658924143566
4.32158874e+02,1.44997996e+02,-4.99323264e-06,6.42145113,4.57857195,1.57625882,-2.84509850,1.24109553e+02,7.40461392,-5.32043087e-01,-1,-0.9942435411500827
4.38606655e+02,1.44997964e+02,-5.00371669e-06,6.42126554,4.57919777,1.57491438,-2.84509850,1.24785550e+02,7.40557069,-5.29261771e-01,-1,-0.9934211898858089
4.45323924e+02,1.44997930e+02,-5.01382779e-06,6.42107778,4.57984391,1.57352823,-2.84509850,1.25471245e+02,7.40656043,-5.26383792e-01,-1,-0.9925644680687034
4.52607596e+02,1.44997893e+02,-5.02315505e-06,6.42088545,4.58053274,1.57205439,-2.84509850,1.26177323e+02,7.40761948,-5.23302649e-01,-1,-0.9916355071009292
4.59891268e+02,1.44997856e+02,-5.03248231e-06,6.42069311,4.58122158,1.57058054,-2.84509850,1.26883401e+02,7.40867853,-5.20221507e-01,-1,-0.9907065461331549
4.67174940e+02,1.44997819e+02,-5.04180957e-06,6.42050078,4.58191042,1.56910670,-2.84509850,1.27589479e+02,7.40973758,-5.17140365e-01,-1,-0.9897775851653806
4.74458612e+02,1.44997782e+02,-5.05113683e-06,6.42030845,4.58259926,1.56763286,-2.84509850,1.28295557e+02,7.41079663,-5.14059223e-01,-1,-0.9888486241976064
4.81742284e+02,1.44997745e+02,-5.06046408e-06,6.42011612,4.58328810,1.56615901,-2.84509850,1.29001635e+02,7.41185568,-5.10978081e-01,-1,-0.9879196632298322
4.89025956e+02,1.44997708e+02,-5.06979134e-06,6.41992379,4.58397694,1.56468517,-2.84509850,1.29707713e+02,7.41291473,-5.07896938e-01,-1,-0.9869907022620579
4.96331093e+02,1.44997671e+02,-5.07911031e-06,6.41973129,4.58466728,1.56320824,-2.84509850,1.30414977e+02,7.41397626,-5.04808432e-01,-1,-0.9860590036439374
5.04420949e+02,1.44997630e+02,-5.08812638e-06,6.41953291,4.58541247,1.56161867,-2.84509850,1.31165595e+02,7.41512862,-5.01450689e-01,-1,-0.9850272218093196
5.12510804e+02,1.44997588e+02,-5.09714244e-06,6.41933452,4.58615766,1.56002910,-2.84509850,1.31916214e+02,7.41628098,-4.98092947e-01,-1,-0.9839954401022419
5.20600659e+02,1.44997546e+02,-5.10615851e-06,6.41913613,4.58690285,1.55843952,-2.84509850,1.32666832e+02,7.41743335,-4.94735204e-01,-1,-0.9829636583951643
5.28690515e+02,1.44997505e+02,-5.11517458e-06,6.41893775,4.58764804,1.55684995,-2.84509850,1.33417450e+02,7.41858571,-4.91377462e-01,-1,-0.9819318765605466
5.36780370e+02,1.44997463e+02,-5.12419064e-06,6.41873936,4.58839323,1.55526037,-2.84509850,1.34168068e+02,7.41973807,-4.88019719e-01,-1,-0.980900094853469
5.44870226e+02,1.44997422e+02,-5.13320671e-06,6.41854098,4.58913842,1.55367080,-2.84509850,1.34918686e+02,7.42089043,-4.84661977e-01,-1,-0.9798683130188511
5.53412632e+02,1.44997378e+02,-5.14139195e-06,6.41834247,4.58991427,1.55201985,-2.84509850,1.35674191e+02,7.42209274,-4.81158800e-01,-1,-0.9787788128677075
5.62377769e+02,1.44997331e+02,-5.14880112e-06,6.41814384,4.59071875,1.55031157,-2.84509850,1.36434262e+02,7.42334172,-4.77519771e-01,-1,-0.9776353975211971
5.71342906e+02,1.44997285e+02,-5.15621029e-06,6.41794522,4.59152324,1.54860329,-2.84509850,1.37194332e+02,7.42459069,-4.73880742e-01,-1,-0.9764919821746866
5.80308043e+02,1.44997238e+02,-5.16361946e-06,6.41774660,4.59232772,1.54689500,-2.84509850,1.37954402e+02,7.42583967,-4.70241714e-01,-1,-0.9753485668281761
5.89273180e+02,1.44997191e+02,-5.17102863e-06,6.41754797,4.59313221,1.54518672,-2.84509850,1.38714472e+02,7.42708864,-4.66602685e-01,-1,-0.9742051514816656
5.98238316e+02,1.44997145e+02,-5.17843780e-06,6.41734935,4.59393669,1.54347844,-2.84509850,1.39474542e+02,7.42833762,-4.62963656e-01,-1,-0.9730617362626953
6.07203453e+02,1.44997098e+02,-5.18584697e-06,6.41715072,4.59474118,1.54177016,-2.84509850,1.40234613e+02,7.42958659,-4.59324627e-01,-1,-0.9719183209161848
6.16658396e+02,1.44997049e+02,-5.19330498e-06,6.41694991,4.59557473,1.54000265,-2.84509850,1.41021104e+02,7.43088596,-4.55538859e-01,-1,-0.9707124356155383
6.26669729e+02,1.44996997e+02,-5.20081845e-06,6.41674660,4.59644129,1.53816787,-2.84509850,1.41837609e+02,7.43224258,-4.51586402e-01,-1,-0.9694355882242239
6.36681062e+02,1.44996944e+02,-5.20833193e-06,6.41654330,4.59730786,1.53633308,-2.84509850,1.42654114e+02,7.43359920,-4.47633945e-01,-1,-0.9681587408329094
6.46692396e+02,1.44996891e+02,-5.21584541e-06,6.41633999,4.59817443,1.53449829,-2.84509850,1.43470619e+02,7.43495583,-4.43681488e-01,-1,-0.9668818933140547
6.56703729e+02,1.44996839e+02,-5.22335888e-06,6.41613669,4.59904099,1.53266351,-2.84509850,1.44287124e+02,7.43631245,-4.39729030e-01,-1,-0.9656050459227403
6.66715062e+02,1.44996786e+02,-5.23087236e-06,6.41593338,4.59990756,1.53082872,-2.84509850,1.45103629e+02,7.43766907,-4.35776573e-01,-1,-0.9643281985314258
6.76726396e+02,1.44996734e+02,-5.23838584e-06,6.41573007,4.60077413,1.52899394,-2.84509850,1.45920134e+02,7.43902569,-4.31824116e-01,-1,-0.9630513510125711
6.86737729e+02,1.44996681e+02,-5.24589932e-06,6.41552677,4.60164069,1.52715915,-2.84509850,1.46736638e+02,7.44038231,-4.27871659e-01,-1,-0.9617745036212567
6.97701953e+02,1.44996623e+02,-5.25528235e-06,6.41530913,4.60255599,1.52521973,-2.84509851,1.47651781e+02,7.44183311,-4.23644980e-01,-1,-0.9603761243232963
7.08779774e+02,1.44996565e+02,-5.26488827e-06,6.41508978,4.60347711,1.52326783,-2.84509851,1.48578681e+02,7.44329514,-4.19385611e-01,-1,-0.9589632568414835
7.19857595e+02,1.44996506e+02,-5.27449418e-06,6.41487044,4.60439822,1.52131593,-2.84509851,1.49505582e+02,7.44475717,-4.15126241e-01,-1,-0.9575503893596709
7.30935416e+02,1.44996447e+02,-5.28410009e-06,6.41465109,4.60531933,1.51936403,-2.84509851,1.50432483e+02,7.44621919,-4.10866872e-01,-1,-0.9561375218778582
7.42013236e+02,1.44996388e+02,-5.29370601e-06,6.41443174,4.60624045,1.51741213,-2.84509851,1.51359384e+02,7.44768122,-4.06607502e-01,-1,-0.9547246545235856
7.53091057e+02,1.44996330e+02,-5.30331192e-06,6.41421239,4.60716156,1.51546023,-2.84509851,1.52286285e+02,7.44914325,-4.02348132e-01,-1,-0.9533117870417729
7.65095099e+02,1.44996265e+02,-5.31061324e-06,6.41399337,4.60813577,1.51340230,-2.84509851,1.53192717e+02,7.45069518,-3.97827650e-01,-1,-0.9517807891503902
7.77125448e+02,1.44996201e+02,-5.31784910e-06,6.41377435,4.60911149,1.51134135,-2.84509851,1.54098568e+02,7.45224966,-3.93299751e-01,-1,-0.9502464360590235
7.89155797e+02,1.44996137e+02,-5.32508496e-06,6.41355533,4.61008721,1.50928040,-2.84509851,1.55004418e+02,7.45380415,-3.88771852e-01,-1,-0.9487120829676566
8.01186146e+02,1.44996073e+02,-5.33232082e-06,6.41333631,4.61106292,1.50721946,-2.84509851,1.55910269e+02,7.45535863,-3.84243953e-01,-1,-0.9471777298762898
8.13216495e+02,1.44996008e+02,-5.33955668e-06,6.41311729,4.61203864,1.50515851,-2.84509851,1.56816120e+02,7.45691312,-3.79716055e-01,-1,-0.9456433767849229
8.25984982e+02,1.44995940e+02,-5.34586566e-06,6.41289707,4.61305270,1.50302028,-2.84509851,1.57727987e+02,7.45853486,-3.74994167e-01,-1,-0.9440148814270138
8.38933351e+02,1.44995870e+02,-5.35194876e-06,6.41267657,4.61407611,1.50086322,-2.84509851,1.58641320e+02,7.46017299,-3.70225006e-01,-1,-0.9423634438832394
8.51881719e+02,1.44995801e+02,-5.35803186e-06,6.41245607,4.61509952,1.49870615,-2.84509851,1.59554653e+02,7.46181112,-3.65455844e-01,-1,-0.9407120064670054
8.64830088e+02,1.44995731e+02,-5.36411496e-06,6.41223556,4.61612292,1.49654909,-2.84509851,1.60467986e+02,7.46344924,-3.60686683e-01,-1,-0.939060568923231
8.77830513e+02,1.44995662e+02,-5.37010025e-06,6.41201532,4.61714898,1.49438686,-2.84509851,1.61380546e+02,7.46509179,-3.55904832e-01,-1,-0.9374024921469186
8.91775082e+02,1.44995586e+02,-5.37431139e-06,6.41179976,4.61822301,1.49213100,-2.84509851,1.62279079e+02,7.46681448,-3.50892839e-01,-1,-0.9356239990580707
9.05719652e+02,1.44995511e+02,-5.37852254e-06,6.41158419,4.61929705,1.48987514,-2.84509851,1.63177611e+02,7.46853716,-3.45880846e-01,-1,-0.9338455058416827
9.19664221e+02,1.44995436e+02,-5.38273368e-06,6.41136863,4.62037109,1.48761929,-2.84509851,1.64076144e+02,7.47025985,-3.40868853e-01,-1,-0.9320670127528348
9.33608791e+02,1.44995361e+02,-5.38694483e-06,6.41115307,4.62144513,1.48536343,-2.84509851,1.64974677e+02,7.47198253,-3.35856860e-01,-1,-0.9302885195364468
9.47553360e+02,1.44995286e+02,-5.39115597e-06,6.41093751,4.62251917,1.48310757,-2.84509851,1.65873210e+02,7.47370522,-3.30844867e-01,-1,-0.9285100264475988
9.62402489e+02,1.44995205e+02,-5.39481170e-06,6.41072025,4.62363092,1.48077544,-2.84509851,1.66789297e+02,7.47549758,-3.25634470e-01,-1,-0.9266161655974062
9.77541263e+02,1.44995123e+02,-5.39828959e-06,6.41050244,4.62475474,1.47841889,-2.84509851,1.67711006e+02,7.47731226,-3.20360544e-01,-1,-0.9246853633666144
9.92680036e+02,1.44995041e+02,-5.40176747e-06,6.41028463,4.62587856,1.47606235,-2.84509851,1.68632714e+02,7.47912694,-3.15086617e-01,-1,-0.9227545612633629
1.00781881e+03,1.44994959e+02,-5.40524535e-06,6.41006682,4.62700238,1.47370580,-2.84509851,1.69554423e+02,7.48094162,-3.09812691e-01,-1,-0.9208237590325711
1.02295758e+03,1.44994877e+02,-5.40872324e-06,6.40984901,4.62812620,1.47134925,-2.84509851,1.70476132e+02,7.48275631,-3.04538764e-01,-1,-0.9188929573119401
1.03809636e+03,1.44994796e+02,-5.41220112e-06,6.40963119,4.62925002,1.46899270,-2.84509852,1.71397840e+02,7.48457099,-2.99264838e-01,-1,-0.9169621543159071
1.05433890e+03,1.44994707e+02,-5.41517360e-06,6.40939754,4.63040984,1.46655624,-2.84509852,1.72344863e+02,7.48646687,-2.93758848e-01,-1,-0.9148905775511226
1.07069744e+03,1.44994619e+02,-5.41809297e-06,6.40916223,4.63157344,1.46411138,-2.84509852,1.73294547e+02,7.48837129,-2.88228472e-01,-1,-0.9128042061233903
1.08705597e+03,1.44994530e+02,-5.42101235e-06,6.40892691,4.63273705,1.46166652,-2.84509852,1.74244230e+02,7.49027571,-2.82698097e-01,-1,-0.9107178359710599
1.10341450e+03,1.44994441e+02,-5.42393172e-06,6.40869160,4.63390065,1.45922166,-2.84509852,1.75193913e+02,7.49218013,-2.77167721e-01,-1,-0.9086314658187297
1.12001786e+03,1.44994351e+02,-5.42620112e-06,6.40845709,4.63507446,1.45675677,-2.84509852,1.76131617e+02,7.49410236,-2.71586876e-01,-1,-0.9065138699997658
1.13746070e+03,1.44994256e+02,-5.42624180e-06,6.40822535,4.63628329,1.45422324,-2.84509852,1.77028246e+02,7.49608569,-2.65832971e-01,-1,-0.9042892067355316
1.15490355e+03,1.44994162e+02,-5.42628248e-06,6.40799360,4.63749213,1.45168970,-2.84509852,1.77924875e+02,7.49806901,-2.60079067e-01,-1,-0.9020645421958954
1.17234640e+03,1.44994067e+02,-5.42632316e-06,6.40776186,4.63870096,1.44915617,-2.84509852,1.78821503e+02,7.50005233,-2.54325162e-01,-1,-0.8998398776562592
1.18985752e+03,1.44993972e+02,-5.42626170e-06,6.40753013,4.63991228,1.44661767,-2.84509852,1.79716994e+02,7.50204018,-2.48558641e-01,-1,-0.8976065059473175
1.20834884e+03,1.44993872e+02,-5.42473407e-06,6.40729854,4.64115926,1.44400789,-2.84509852,1.80596150e+02,7.50409299,-2.42610998e-01,-1,-0.8952481193364674
1.22684015e+03,1.44993772e+02,-5.42320644e-06,6.40706695,4.64240625,1.44139812,-2.84509852,1.81475306e+02,7.50614581,-2.36663356e-01,-1,-0.8928897340010193
1.24533146e+03,1.44993671e+02,-5.42167880e-06,6.40683536,4.64365324,1.43878835,-2.84509852,1.82354461e+02,7.50819862,-2.30715713e-01,-1,-0.8905313486655713
1.26402477e+03,1.44993570e+02,-5.41995687e-06,6.40660511,4.64490750,1.43616470,-2.84509852,1.83233141e+02,7.51026342,-2.24734970e-01,-1,-0.8881472002101626
1.28365530e+03,1.44993464e+02,-5.41733344e-06,6.40638104,4.64619551,1.43347664,-2.84509852,1.84109615e+02,7.51238383,-2.18600643e-01,-1,-0.885643518530548
1.30328583e+03,1.44993358e+02,-5.41471000e-06,6.40615698,4.64748353,1.43078859,-2.84509852,1.84986088e+02,7.51450424,-2.12466317e-01,-1,-0.8831398368509334
1.32291635e+03,1.44993252e+02,-5.41208656e-06,6.40593292,4.64877154,1.42810053,-2.84509852,1.85862561e+02,7.51662465,-2.06331990e-01,-1,-0.8806361564467209
1.34254688e+03,1.44993145e+02,-5.40946313e-06,6.40570885,4.65005955,1.42541247,-2.84509852,1.86739034e+02,7.51874506,-2.00197663e-01,-1,-0.8781324747671064
1.36325215e+03,1.44993034e+02,-5.40584918e-06,6.40548326,4.65137627,1.42266625,-2.84509853,1.87608859e+02,7.52092031,-1.93913664e-01,-1,-0.8754917205352811
1.38425582e+03,1.44992920e+02,-5.40196022e-06,6.40525725,4.65270095,1.41990388,-2.84509853,1.88476838e+02,7.52311078,-1.87588108e-01,-1,-0.8728129083084248
1.40525950e+03,1.44992807e+02,-5.39807125e-06,6.40503123,4.65402563,1.41714151,-2.84509853,1.89344817e+02,7.52530126,-1.81262551e-01,-1,-0.8701340948061667
1.42626317e+03,1.44992694e+02,-5.39418228e-06,6.40480522,4.65535031,1.41437914,-2.84509853,1.90212796e+02,7.52749173,-1.74936994e-01,-1,-0.8674552825793103
1.44726685e+03,1.44992581e+02,-5.39029332e-06,6.40457921,4.65667500,1.41161676,-2.84509853,1.91080775e+02,7.52968220,-1.68611437e-01,-1,-0.864776469077052
1.46947608e+03,1.44992462e+02,-5.38290270e-06,6.40433595,4.65802100,1.40880313,-2.84509853,1.91850285e+02,7.53193083,-1.62128236e-01,-1,-0.8619438994893055
1.49189158e+03,1.44992342e+02,-5.37491293e-06,6.40408973,4.65937065,1.40598072,-2.84509853,1.92602946e+02,7.53418941,-1.55618062e-01,-1,-0.8590850221849535
1.51430708e+03,1.44992222e+02,-5.36692316e-06,6.40384352,4.66072030,1.40315831,-2.84509853,1.93355607e+02,7.53644800,-1.49107887e-01,-1,-0.8562261448806017
1.53672259e+03,1.44992102e+02,-5.35893338e-06,6.40359731,4.66206995,1.40033590,-2.84509853,1.94108268e+02,7.53870658,-1.42597712e-01,-1,-0.8533672663008477
1.56020554e+03,1.44991976e+02,-5.34888850e-06,6.40335577,4.66344962,1.39745579,-2.84509853,1.94805359e+02,7.54101552,-1.35953407e-01,-1,-0.8503722462123272
1.58387390e+03,1.44991851e+02,-5.33848667e-06,6.40311503,4.66483451,1.39456565,-2.84509853,1.95492797e+02,7.54333322,-1.29285804e-01,-1,-0.8473535788957279
1.60754225e+03,1.44991725e+02,-5.32808484e-06,6.40287429,4.66621939,1.39167551,-2.84509853,1.96180236e+02,7.54565091,-1.22618202e-01,-1,-0.8443349128545307
1.63154121e+03,1.44991597e+02,-5.31781760e-06,6.40263639,4.66761311,1.38876913,-2.84509853,1.96877632e+02,7.54798145,-1.15917301e-01,-1,-0.8412740807485304
1.65654580e+03,1.44991465e+02,-5.30795974e-06,6.40240708,4.66903368,1.38581333,-2.84509854,1.97605317e+02,7.55035103,-1.09115116e-01,-1,-0.8380849903933911
1.68155038e+03,1.44991333e+02,-5.29810189e-06,6.40217777,4.67045425,1.38285753,-2.84509854,1.98333002e+02,7.55272062,-1.02312930e-01,-1,-0.8348959013136538
1.70655497e+03,1.44991201e+02,-5.28824403e-06,6.40194846,4.67187483,1.37990173,-2.84509854,1.99060686e+02,7.55509021,-9.55107451e-02,-1,-0.8317068109585144
1.73180733e+03,1.44991068e+02,-5.27816247e-06,6.40171891,4.67329967,1.37693726,-2.84509854,1.99782816e+02,7.55746801,-8.86854634e-02,-1,-0.8284861199685599
1.75843090e+03,1.44990929e+02,-5.26684292e-06,6.40148805,4.67474817,1.37392484,-2.84509854,2.00474202e+02,7.55989125,-8.17323697e-02,-1,-0.8250905445839456
1.78505446e+03,1.44990790e+02,-5.25552337e-06,6.40125718,4.67619666,1.37091243,-2.84509854,2.01165589e+02,7.56231450,-7.47792760e-02,-1,-0.821694970474733
1.81167803e+03,1.44990650e+02,-5.24420382e-06,6.40102632,4.67764515,1.36790001,-2.84509854,2.01856975e+02,7.56473774,-6.78261823e-02,-1,-0.8182993950901186
1.83830159e+03,1.44990511e+02,-5.23288427e-06,6.40079545,4.67909364,1.36488760,-2.84509854,2.02548362e+02,7.56716099,-6.08730886e-02,-1,-0.8149038209809062
1.86581776e+03,1.44990368e+02,-5.21760197e-06,6.40055279,4.68055096,1.36185163,-2.84509854,2.03093126e+02,7.56961637,-5.38191906e-02,-1,-0.811394403215713
1.89409865e+03,1.44990223e+02,-5.19892468e-06,6.40030003,4.68201584,1.35879549,-2.84509854,2.03512274e+02,7.57209927,-4.66789307e-02,-1,-0.8077874529104387
1.92237953e+03,1.44990077e+02,-5.18024738e-06,6.40004727,4.68348072,1.35573935,-2.84509855,2.03931422e+02,7.57458217,-3.95386709e-02,-1,-0.8041805038805666
1.95066041e+03,1.44989931e+02,-5.16157009e-06,6.39979451,4.68494560,1.35268322,-2.84509855,2.04350571e+02,7.57706508,-3.23984110e-02,-1,-0.8005735548506944
1.98012388e+03,1.44989781e+02,-5.14181257e-06,6.39955039,4.68643813,1.34957608,-2.84509855,2.04734857e+02,7.57959710,-2.50940295e-02,-1,-0.796815778058276
2.00984393e+03,1.44989629e+02,-5.12182068e-06,6.39930814,4.68793667,1.34645788,-2.84509855,2.05111580e+02,7.58213978,-1.77540403e-02,-1,-0.7930252770018996
2.03956397e+03,1.44989478e+02,-5.10182879e-06,6.39906588,4.68943521,1.34333967,-2.84509855,2.05488304e+02,7.58468246,-1.04140511e-02,-1,-0.7892347772209253
2.06994415e+03,1.44989324e+02,-5.08142695e-06,6.39882611,4.69094687,1.34019646,-2.84509855,2.05851962e+02,7.58725183,-2.97795900e-03,-1,-0.7853600830537585
2.10105778e+03,1.44989168e+02,-5.06056960e-06,6.39858909,4.69247312,1.33702545,-2.84509855,2.06201104e+02,7.58985087,4.56490934e-03,-1,-0.7813918445284967
2.13217141e+03,1.44989011e+02,-5.03971226e-06,6.39835207,4.69399937,1.33385445,-2.84509855,2.06550246e+02,7.59244991,1.21077777e-02,-1,-0.7774236060032351
2.16374197e+03,1.44988853e+02,-5.01948762e-06,6.39811978,4.69553561,1.33066582,-2.84509856,2.06928304e+02,7.59506607,1.97028602e-02,-1,-0.7733970905353811
2.19636609e+03,1.44988692e+02,-5.00072182e-06,6.39789838,4.69709489,1.32743656,-2.84509856,2.07373037e+02,7.59772171,2.74183328e-02,-1,-0.7692362038167064
2.22899021e+03,1.44988530e+02,-4.98195601e-06,6.39767699,4.69865418,1.32420730,-2.84509856,2.07817769e+02,7.60037734,3.51338054e-02,-1,-0.7650753170980317
2.26161433e+03,1.44988368e+02,-4.96319021e-06,6.39745559,4.70021346,1.32097803,-2.84509856,2.08262501e+02,7.60303297,4.28492781e-02,-1,-0.7609144303793569
2.29548067e+03,1.44988202e+02,-4.94359651e-06,6.39723621,4.70178861,1.31771803,-2.84509856,2.08678151e+02,7.60572340,5.06569895e-02,-1,-0.7565951106761397
2.32994984e+03,1.44988034e+02,-4.92360106e-06,6.39701781,4.70337147,1.31444312,-2.84509856,2.09079686e+02,7.60843070,5.85094626e-02,-1,-0.7521989059154675
2.36441902e+03,1.44987866e+02,-4.90360560e-06,6.39679941,4.70495433,1.31116820,-2.84509856,2.09481222e+02,7.61113801,6.63619356e-02,-1,-0.7478026998793932
2.39888819e+03,1.44987698e+02,-4.88361015e-06,6.39658100,4.70653718,1.30789329,-2.84509857,2.09882758e+02,7.61384531,7.42144087e-02,-1,-0.7434064951187209
2.43441605e+03,1.44987527e+02,-4.85810904e-06,6.39635067,4.70812403,1.30460442,-2.84509857,2.10044748e+02,7.61658002,8.21581882e-02,-1,-0.7388752648260132
2.47080555e+03,1.44987353e+02,-4.82812711e-06,6.39611061,4.70971413,1.30130419,-2.84509857,2.10011782e+02,7.61933702,9.01762785e-02,-1,-0.7342341407972512
2.50719505e+03,1.44987180e+02,-4.79814518e-06,6.39587056,4.71130423,1.29800397,-2.84509857,2.09978816e+02,7.62209403,9.81943687e-02,-1,-0.7295930167684892
2.54386498e+03,1.44987005e+02,-4.76819375e-06,6.39563264,4.71289881,1.29469586,-2.84509857,2.09945511e+02,7.62485842,1.06234572e-01,-1,-0.7249161266420511
2.58193116e+03,1.44986827e+02,-4.73839420e-06,6.39540527,4.71451565,1.29134848,-2.84509858,2.09910522e+02,7.62765958,1.14384878e-01,-1,-0.7200611585143994
2.61999733e+03,1.44986649e+02,-4.70859465e-06,6.39517791,4.71613250,1.28800111,-2.84509858,2.09875532e+02,7.63046075,1.22535183e-01,-1,-0.7152061916621497
