star_age,star_mass,star_mdot,log_L,log_Teff,log_R,log_surf_z,v_wind_Km_per_s,log_center_T,log_center_Rho,phase,x
3.87024407e+02,1.74997455e+02,-6.47884964e-06,6.51202893,4.61452498,1.54964167,-2.84509851,1.69457064e+02,7.40949238,-6.21399062e-01,-1,-1.0
3.92785414e+02,1.74997418e+02,-6.47840330e-06,6.51184486,4.61504070,1.54851819,-2.84509851,1.69861370e+02,7.41033445,-6.18883628e-01,-1,-0.9989601309234767
3.98546421e+02,1.74997381e+02,-6.47795696e-06,6.51166079,4.61555641,1.54739472,-2.84509851,1.70265676e+02,7.41117652,-6.16368194e-01,-1,-0.9979202618469534
4.04307428e+02,1.74997344e+02,-6.47751062e-06,6.51147671,4.61607213,1.54627124,-2.84509851,1.70669981e+02,7.41201860,-6.13852760e-01,-1,-0.9968803927704301
4.10068435e+02,1.74997306e+02,-6.47706429e-06,6.51129264,4.61658785,1.54514776,-2.84509851,1.71074287e+02,7.41286067,-6.11337326e-01,-1,-0.9958405236939067
4.15829442e+02,1.74997269e+02,-6.47661795e-06,6.51110856,4.61710357,1.54402429,-2.84509851,1.71478593e+02,7.41370274,-6.08821893e-01,-1,-0.9948006546173835
4.21590449e+02,1.74997232e+02,-6.47617161e-06,6.51092449,4.61761929,1.54290081,-2.84509851,1.71882899e+02,7.41454481,-6.06306459e-01,-1,-0.9937607855408602
4.27351456e+02,1.74997194e+02,-6.47572527e-06,6.51074041,4.61813501,1.54177733,-2.84509851,1.72287205e+02,7.41538689,-6.03791025e-01,-1,-0.9927209164643369
4.33112463e+02,1.74997157e+02,-6.47527893e-06,6.51055634,4.61865073,1.54065386,-2.84509851,1.72691510e+02,7.41622896,-6.01275591e-01,-1,-0.9916810473878136
4.38873470e+02,1.74997120e+02,-6.47483259e-06,6.51037226,4.61916645,1.53953038,-2.84509851,1.73095816e+02,7.41707103,-5.98760157e-01,-1,-0.9906411783112903
4.44634477e+02,1.74997082e+02,-6.47438626e-06,6.51018819,4.61968217,1.53840690,-2.84509851,1.73500122e+02,7.41791311,-5.96244723e-01,-1,-0.989601309234767
4.51113645e+02,1.74997041e+02,-6.47343860e-06,6.51000453,4.62024479,1.53718984,-2.84509851,1.73925452e+02,7.41884168,-5.93470259e-01,-1,-0.98843181118611
4.57658370e+02,1.74996998e+02,-6.47244518e-06,6.50982092,4.62081169,1.53596423,-2.84509851,1.74352702e+02,7.41977816,-5.90672149e-01,-1,-0.9872504800157349
4.64203095e+02,1.74996956e+02,-6.47145176e-06,6.50963730,4.62137859,1.53473863,-2.84509851,1.74779952e+02,7.42071463,-5.87874039e-01,-1,-0.9860691488453598
4.70747820e+02,1.74996914e+02,-6.47045834e-06,6.50945368,4.62194549,1.53351302,-2.84509851,1.75207201e+02,7.42165111,-5.85075929e-01,-1,-0.9848878176749848
4.77292545e+02,1.74996871e+02,-6.46946492e-06,6.50927007,4.62251238,1.53228742,-2.84509851,1.75634451e+02,7.42258758,-5.82277819e-01,-1,-0.9837064865046097
4.83837270e+02,1.74996829e+02,-6.46847151e-06,6.50908645,4.62307928,1.53106181,-2.84509851,1.76061700e+02,7.42352405,-5.79479709e-01,-1,-0.9825251553342347
4.90381995e+02,1.74996787e+02,-6.46747809e-06,6.50890283,4.62364618,1.52983620,-2.84509851,1.76488950e+02,7.42446053,-5.76681599e-01,-1,-0.9813438241638596
4.96926719e+02,1.74996744e+02,-6.46648467e-06,6.50871922,4.62421308,1.52861060,-2.84509851,1.76916200e+02,7.42539700,-5.73883489e-01,-1,-0.9801624931739857
5.03728598e+02,1.74996700e+02,-6.46544090e-06,6.50853741,4.62479568,1.52735451,-2.84509851,1.77353288e+02,7.42636266,-5.70997928e-01,-1,-0.9789347453801793
5.11115067e+02,1.74996653e+02,-6.46428267e-06,6.50835972,4.62541395,1.52602911,-2.84509851,1.77812742e+02,7.42739467,-5.67913563e-01,-1,-0.9776014783492943
5.18501537e+02,1.74996605e+02,-6.46312445e-06,6.50818204,4.62603222,1.52470372,-2.84509852,1.78272197e+02,7.42842668,-5.64829198e-01,-1,-0.976268211137908
5.25888007e+02,1.74996557e+02,-6.46196622e-06,6.50800435,4.62665050,1.52337833,-2.84509852,1.78731651e+02,7.42945869,-5.61744833e-01,-1,-0.9749349439265217
5.33274477e+02,1.74996510e+02,-6.46080799e-06,6.50782666,4.62726877,1.52205294,-2.84509852,1.79191106e+02,7.43049070,-5.58660468e-01,-1,-0.9736016767151353
5.40660946e+02,1.74996462e+02,-6.45964977e-06,6.50764897,4.62788705,1.52072754,-2.84509852,1.79650560e+02,7.43152271,-5.55576103e-01,-1,-0.9722684096842503
5.48047416e+02,1.74996414e+02,-6.45849154e-06,6.50747128,4.62850532,1.51940215,-2.84509852,1.80110015e+02,7.43255472,-5.52491738e-01,-1,-0.9709351424728639
5.55433886e+02,1.74996367e+02,-6.45733331e-06,6.50729359,4.62912360,1.51807676,-2.84509852,1.80569469e+02,7.43358673,-5.49407373e-01,-1,-0.9696018752614777
5.62820356e+02,1.74996319e+02,-6.45617508e-06,6.50711590,4.62974187,1.51675137,-2.84509852,1.81028923e+02,7.43461875,-5.46323007e-01,-1,-0.9682686080500913
5.70357716e+02,1.74996270e+02,-6.45496401e-06,6.50693891,4.63036843,1.51540974,-2.84509852,1.81493107e+02,7.43566676,-5.43190633e-01,-1,-0.9669081050021652
5.78750088e+02,1.74996216e+02,-6.45345348e-06,6.50676584,4.63104197,1.51397613,-2.84509852,1.81984086e+02,7.43680548,-5.39786221e-01,-1,-0.9653932712028866
5.87142459e+02,1.74996162e+02,-6.45194294e-06,6.50659278,4.63171552,1.51254251,-2.84509852,1.82475066e+02,7.43794420,-5.36381808e-01,-1,-0.9638784375841095
5.95534831e+02,1.74996108e+02,-6.45043241e-06,6.50641971,4.63238906,1.51110890,-2.84509852,1.82966045e+02,7.43908292,-5.32977396e-01,-1,-0.962363603784831
6.03927203e+02,1.74996054e+02,-6.44892187e-06,6.50624665,4.63306260,1.50967528,-2.84509852,1.83457024e+02,7.44022165,-5.29572983e-01,-1,-0.9608487699855525
6.12319574e+02,1.74996000e+02,-6.44741134e-06,6.50607358,4.63373614,1.50824167,-2.84509852,1.83948004e+02,7.44136037,-5.26168571e-01,-1,-0.9593339363667752
6.20711946e+02,1.74995946e+02,-6.44590080e-06,6.50590052,4.63440968,1.50680805,-2.84509852,1.84438983e+02,7.44249909,-5.22764158e-01,-1,-0.9578191025674967
6.29104318e+02,1.74995892e+02,-6.44439027e-06,6.50572745,4.63508322,1.50537444,-2.84509852,1.84929963e+02,7.44363781,-5.19359745e-01,-1,-0.9563042687682183
6.37496689e+02,1.74995838e+02,-6.44287974e-06,6.50555438,4.63575676,1.50394083,-2.84509852,1.85420942e+02,7.44477653,-5.15955333e-01,-1,-0.954789435149441
6.45889061e+02,1.74995784e+02,-6.44136920e-06,6.50538132,4.63643030,1.50250721,-2.84509852,1.85911921e+02,7.44591525,-5.12550920e-01,-1,-0.9532746013501625
6.54774220e+02,1.74995727e+02,-6.43912519e-06,6.50520659,4.63712869,1.50102306,-2.84509852,1.86401886e+02,7.44710422,-5.08995449e-01,-1,-0.9516708188718401
6.64192688e+02,1.74995666e+02,-6.43608738e-06,6.50503007,4.63785398,1.49948423,-2.84509852,1.86890754e+02,7.44834758,-5.05276497e-01,-1,-0.9499707734420352
6.73611156e+02,1.74995606e+02,-6.43304957e-06,6.50485355,4.63857927,1.49794539,-2.84509852,1.87379621e+02,7.44959093,-5.01557545e-01,-1,-0.9482707280122302
6.83029624e+02,1.74995545e+02,-6.43001176e-06,6.50467703,4.63930455,1.49640656,-2.84509852,1.87868488e+02,7.45083429,-4.97838593e-01,-1,-0.9465706825824253
6.92448092e+02,1.74995485e+02,-6.42697395e-06,6.50450051,4.64002984,1.49486772,-2.84509852,1.88357355e+02,7.45207764,-4.94119641e-01,-1,-0.9448706371526203
7.01866560e+02,1.74995424e+02,-6.42393614e-06,6.50432399,4.64075513,1.49332889,-2.84509852,1.88846223e+02,7.45332100,-4.90400689e-01,-1,-0.9431705917228154
7.11285028e+02,1.74995364e+02,-6.42089833e-06,6.50414747,4.64148042,1.49179005,-2.84509852,1.89335090e+02,7.45456435,-4.86681737e-01,-1,-0.9414705462930105
7.20712329e+02,1.74995304e+02,-6.41784936e-06,6.50397100,4.64220616,1.49025033,-2.84509852,1.89823962e+02,7.45580859,-4.82960159e-01,-1,-0.9397689064954929
7.31052039e+02,1.74995237e+02,-6.41364806e-06,6.50380008,4.64297901,1.48861918,-2.84509853,1.90313357e+02,7.45714327,-4.78967336e-01,-1,-0.9379025757152633
7.41391750e+02,1.74995171e+02,-6.40944675e-06,6.50362916,4.64375186,1.48698802,-2.84509853,1.90802751e+02,7.45847796,-4.74974513e-01,-1,-0.9360362447545323
7.51731460e+02,1.74995105e+02,-6.40524545e-06,6.50345824,4.64452471,1.48535686,-2.84509853,1.91292146e+02,7.45981265,-4.70981691e-01,-1,-0.9341699139743026
7.62071170e+02,1.74995039e+02,-6.40104415e-06,6.50328732,4.64529756,1.48372570,-2.84509853,1.91781540e+02,7.46114733,-4.66988868e-01,-1,-0.9323035831940728
7.72410881e+02,1.74994973e+02,-6.39684284e-06,6.50311641,4.64607040,1.48209455,-2.84509853,1.92270934e+02,7.46248202,-4.62996045e-01,-1,-0.9304372522333418
7.82750591e+02,1.74994907e+02,-6.39264154e-06,6.50294549,4.64684325,1.48046339,-2.84509853,1.92760329e+02,7.46381671,-4.59003223e-01,-1,-0.9285709214531122
7.93570760e+02,1.74994838e+02,-6.38800204e-06,6.50277728,4.64763884,1.47878811,-2.84509853,1.93253267e+02,7.46519602,-4.54876416e-01,-1,-0.9266178672134877
8.04800796e+02,1.74994767e+02,-6.38298873e-06,6.50261139,4.64845382,1.47707520,-2.84509853,1.93749228e+02,7.46661340,-4.50635312e-01,-1,-0.924590831460078
8.16030831e+02,1.74994695e+02,-6.37797542e-06,6.50244550,4.64926881,1.47536229,-2.84509853,1.94245190e+02,7.46803078,-4.46394208e-01,-1,-0.9225637958871696
8.27260867e+02,1.74994624e+02,-6.37296211e-06,6.50227961,4.65008379,1.47364938,-2.84509853,1.94741151e+02,7.46944816,-4.42153104e-01,-1,-0.92053676013376
8.38490902e+02,1.74994552e+02,-6.36794880e-06,6.50211372,4.65089877,1.47193647,-2.84509853,1.95237112e+02,7.47086554,-4.37912000e-01,-1,-0.9185097245608516
8.49720938e+02,1.74994481e+02,-6.36293549e-06,6.50194783,4.65171376,1.47022355,-2.84509853,1.95733073e+02,7.47228293,-4.33670895e-01,-1,-0.9164826888074419
8.61558478e+02,1.74994406e+02,-6.35789264e-06,6.50178807,4.65255579,1.46845962,-2.84509853,1.96247177e+02,7.47375250,-4.29273061e-01,-1,-0.9143459978108666
8.73757374e+02,1.74994329e+02,-6.35283223e-06,6.50163196,4.65341390,1.46666533,-2.84509853,1.96772072e+02,7.47525312,-4.24782001e-01,-1,-0.9121440815975858
8.85956269e+02,1.74994251e+02,-6.34777183e-06,6.50147584,4.65427201,1.46487104,-2.84509853,1.97296967e+02,7.47675374,-4.20290941e-01,-1,-0.9099421655648063
8.98155164e+02,1.74994174e+02,-6.34271142e-06,6.50131973,4.65513013,1.46307676,-2.84509853,1.97821862e+02,7.47825436,-4.15799881e-01,-1,-0.9077402495320268
9.10354059e+02,1.74994097e+02,-6.33765101e-06,6.50116361,4.65598824,1.46128247,-2.84509853,1.98346757e+02,7.47975499,-4.11308821e-01,-1,-0.9055383334992474
9.22552954e+02,1.74994020e+02,-6.33259060e-06,6.50100750,4.65684636,1.45948818,-2.84509853,1.98871652e+02,7.48125561,-4.06817760e-01,-1,-0.903336417466468
9.34862479e+02,1.74993942e+02,-6.32744127e-06,6.50085200,4.65770870,1.45768575,-2.84509853,1.99396826e+02,7.48276482,-4.02300866e-01,-1,-0.9011145325782547
9.48220957e+02,1.74993858e+02,-6.32144875e-06,6.50070236,4.65861112,1.45580609,-2.84509854,1.99924646e+02,7.48435544,-3.97539022e-01,-1,-0.8987033103420003
9.61579435e+02,1.74993774e+02,-6.31545624e-06,6.50055271,4.65951354,1.45392643,-2.84509854,2.00452466e+02,7.48594607,-3.92777177e-01,-1,-0.896292088105746
9.74937913e+02,1.74993690e+02,-6.30946373e-06,6.50040307,4.66041596,1.45204677,-2.84509854,2.00980287e+02,7.48753670,-3.88015333e-01,-1,-0.8938808658694917
9.88296390e+02,1.74993606e+02,-6.30347121e-06,6.50025343,4.66131838,1.45016710,-2.84509854,2.01508107e+02,7.48912732,-3.83253488e-01,-1,-0.8914696438137386
1.00165487e+03,1.74993522e+02,-6.29747870e-06,6.50010378,4.66222080,1.44828744,-2.84509854,2.02035927e+02,7.49071795,-3.78491643e-01,-1,-0.8890584212164818
1.01501335e+03,1.74993438e+02,-6.29148619e-06,6.49995414,4.66312322,1.44640778,-2.84509854,2.02563747e+02,7.49230858,-3.73729799e-01,-1,-0.8866471986192249
1.02837182e+03,1.74993354e+02,-6.28549367e-06,6.49980450,4.66402564,1.44452812,-2.84509854,2.03091567e+02,7.49389920,-3.68967954e-01,-1,-0.8842359778269807
1.04284199e+03,1.74993264e+02,-6.27567451e-06,6.49965104,4.66496505,1.44257256,-2.84509854,2.03523480e+02,7.49557155,-3.63959956e-01,-1,-0.8816240937735444
1.05738586e+03,1.74993174e+02,-6.26560166e-06,6.49949733,4.66590692,1.44061197,-2.84509854,2.03949035e+02,7.49724932,-3.58935638e-01,-1,-0.8789989067765532
1.07192973e+03,1.74993083e+02,-6.25552881e-06,6.49934361,4.66684879,1.43865139,-2.84509854,2.04374590e+02,7.49892708,-3.53911321e-01,-1,-0.8763737197795621
1.08647360e+03,1.74992992e+02,-6.24545596e-06,6.49918990,4.66779065,1.43669080,-2.84509854,2.04800145e+02,7.50060485,-3.48887004e-01,-1,-0.8737485327825709
1.10101747e+03,1.74992902e+02,-6.23538310e-06,6.49903619,4.66873252,1.43473021,-2.84509854,2.05225699e+02,7.50228261,-3.43862686e-01,-1,-0.8711233457855798
1.11578738e+03,1.74992810e+02,-6.22504034e-06,6.49888385,4.66968243,1.43275422,-2.84509854,2.05646856e+02,7.50397617,-3.38790807e-01,-1,-0.8684573582816535
1.13139876e+03,1.74992714e+02,-6.21369283e-06,6.49873660,4.67066228,1.43072090,-2.84509854,2.06051640e+02,7.50572848,-3.33541878e-01,-1,-0.865639484374565
1.14701014e+03,1.74992617e+02,-6.20234532e-06,6.49858935,4.67164213,1.42868758,-2.84509854,2.06456425e+02,7.50748080,-3.28292949e-01,-1,-0.8628216104674764
1.16262152e+03,1.74992521e+02,-6.19099782e-06,6.49844211,4.67262198,1.42665425,-2.84509855,2.06861209e+02,7.50923312,-3.23044020e-01,-1,-0.8600037365603879
1.17823289e+03,1.74992425e+02,-6.17965031e-06,6.49829486,4.67360183,1.42462093,-2.84509855,2.07265993e+02,7.51098544,-3.17795091e-01,-1,-0.857185864458312
1.19399176e+03,1.74992328e+02,-6.16843471e-06,6.49814893,4.67458624,1.42257913,-2.84509855,2.07677574e+02,7.51274643,-3.12520233e-01,-1,-0.8543413684189997
1.21074422e+03,1.74992225e+02,-6.15810782e-06,6.49801184,4.67560143,1.42048021,-2.84509855,2.08134941e+02,7.51456586,-3.07070697e-01,-1,-0.851317528123424
1.22749669e+03,1.74992123e+02,-6.14778093e-06,6.49787474,4.67661662,1.41838129,-2.84509855,2.08592307e+02,7.51638528,-3.01621161e-01,-1,-0.8482936860228356
1.24424915e+03,1.74992021e+02,-6.13745404e-06,6.49773765,4.67763180,1.41628237,-2.84509855,2.09049674e+02,7.51820471,-2.96171625e-01,-1,-0.8452698457272599
1.26100162e+03,1.74991918e+02,-6.12712715e-06,6.49760055,4.67864699,1.41418344,-2.84509855,2.09507041e+02,7.52002414,-2.90722089e-01,-1,-0.8422460036266716
1.27775408e+03,1.74991816e+02,-6.11680026e-06,6.49746346,4.67966218,1.41208452,-2.84509855,2.09964407e+02,7.52184357,-2.85272553e-01,-1,-0.8392221633310959
1.29511872e+03,1.74991710e+02,-6.10588808e-06,6.49732790,4.68069117,1.40995876,-2.84509855,2.10409959e+02,7.52369204,-2.79735342e-01,-1,-0.8360878237684188
1.31324477e+03,1.74991601e+02,-6.09424795e-06,6.49719425,4.68173734,1.40779960,-2.84509855,2.10840816e+02,7.52557665,-2.74089083e-01,-1,-0.8328160487342078
1.33137083e+03,1.74991491e+02,-6.08260781e-06,6.49706060,4.68278351,1.40564044,-2.84509855,2.11271672e+02,7.52746126,-2.68442824e-01,-1,-0.8295442718949839
1.34949688e+03,1.74991382e+02,-6.07096768e-06,6.49692695,4.68382967,1.40348129,-2.84509855,2.11702529e+02,7.52934587,-2.62796565e-01,-1,-0.8262724968607729
1.36762293e+03,1.74991273e+02,-6.05932754e-06,6.49679331,4.68487584,1.40132213,-2.84509856,2.12133385e+02,7.53123048,-2.57150306e-01,-1,-0.8230007218265618
1.38574898e+03,1.74991163e+02,-6.04768741e-06,6.49665966,4.68592200,1.39916297,-2.84509856,2.12564242e+02,7.53311509,-2.51504047e-01,-1,-0.8197289467923508
1.40407435e+03,1.74991053e+02,-6.03507132e-06,6.49652474,4.68697161,1.39699629,-2.84509856,2.12962757e+02,7.53500837,-2.45831561e-01,-1,-0.8164211942451228
1.42360175e+03,1.74990937e+02,-6.01656932e-06,6.49638213,4.68804200,1.39478422,-2.84509856,2.13166228e+02,7.53695393,-2.40000897e-01,-1,-0.8128964737570379
1.44312916e+03,1.74990821e+02,-5.99806732e-06,6.49623952,4.68911238,1.39257215,-2.84509856,2.13369698e+02,7.53889948,-2.34170233e-01,-1,-0.8093717514639401
1.46265656e+03,1.74990704e+02,-5.97956532e-06,6.49609691,4.69018277,1.39036007,-2.84509856,2.13573169e+02,7.54084504,-2.28339569e-01,-1,-0.8058470309758552
1.48218396e+03,1.74990588e+02,-5.96106332e-06,6.49595431,4.69125315,1.38814800,-2.84509856,2.13776639e+02,7.54279060,-2.22508905e-01,-1,-0.8023223104877701
1.50184797e+03,1.74990472e+02,-5.94249617e-06,6.49581218,4.69232624,1.38593076,-2.84509856,2.13978517e+02,7.54474140,-2.16662454e-01,-1,-0.7987729317212724
1.52262939e+03,1.74990350e+02,-5.92339609e-06,6.49567403,4.69342143,1.38367130,-2.84509856,2.14167366e+02,7.54673514,-2.10686863e-01,-1,-0.7950218590313342
1.54341081e+03,1.74990228e+02,-5.90429600e-06,6.49553588,4.69451663,1.38141184,-2.84509856,2.14356215e+02,7.54872887,-2.04711271e-01,-1,-0.7912707863413959
1.56419223e+03,1.74990106e+02,-5.88519592e-06,6.49539773,4.69561182,1.37915238,-2.84509857,2.14545065e+02,7.55072261,-1.98735680e-01,-1,-0.7875197136514577
1.58497365e+03,1.74989985e+02,-5.86609584e-06,6.49525958,4.69670701,1.37689292,-2.84509857,2.14733914e+02,7.55271634,-1.92760089e-01,-1,-0.7837686409615195
1.60657849e+03,1.74989859e+02,-5.84856643e-06,6.49512574,4.69781407,1.37461188,-2.84509857,2.14982898e+02,7.55473122,-1.86722138e-01,-1,-0.7798689399163318
1.62870766e+03,1.74989731e+02,-5.83203719e-06,6.49499463,4.69892868,1.37231710,-2.84509857,2.15270174e+02,7.55675957,-1.80644478e-01,-1,-0.7758745966405595
1.65083682e+03,1.74989604e+02,-5.81550795e-06,6.49486353,4.70004330,1.37002232,-2.84509857,2.15557451e+02,7.55878791,-1.74566818e-01,-1,-0.7718802551697999
1.67296599e+03,1.74989476e+02,-5.79897871e-06,6.49473242,4.70115791,1.36772754,-2.84509857,2.15844727e+02,7.56081626,-1.68489158e-01,-1,-0.7678859118940277
1.69509516e+03,1.74989348e+02,-5.78244947e-06,6.49460132,4.70227252,1.36543276,-2.84509857,2.16132004e+02,7.56284461,-1.62411497e-01,-1,-0.7638915686182552
1.71810986e+03,1.74989216e+02,-5.76520901e-06,6.49446931,4.70339278,1.36312625,-2.84509857,2.16393425e+02,7.56488643,-1.56292596e-01,-1,-0.759737386053391
1.74187248e+03,1.74989082e+02,-5.74736784e-06,6.49433655,4.70451780,1.36080982,-2.84509858,2.16633008e+02,7.56693963,-1.50138863e-01,-1,-0.755448202979117
1.76563510e+03,1.74988947e+02,-5.72952667e-06,6.49420378,4.70564283,1.35849339,-2.84509858,2.16872592e+02,7.56899283,-1.43985129e-01,-1,-0.751159019904843
1.78939772e+03,1.74988812e+02,-5.71168550e-06,6.49407102,4.70676785,1.35617696,-2.84509858,2.17112175e+02,7.57104603,-1.37831395e-01,-1,-0.746869836830569
1.81316035e+03,1.74988677e+02,-5.69384434e-06,6.49393825,4.70789287,1.35386053,-2.84509858,2.17351759e+02,7.57309924,-1.31677662e-01,-1,-0.7425806519512822
1.83692297e+03,1.74988542e+02,-5.67600317e-06,6.49380548,4.70901790,1.35154410,-2.84509858,2.17591342e+02,7.57515244,-1.25523928e-01,-1,-0.7382914688770081
1.86216317e+03,1.74988402e+02,-5.65057376e-06,6.49366040,4.71014607,1.34921520,-2.84509858,2.17540052e+02,7.57722512,-1.19311568e-01,-1,-0.733735580737094
1.88760939e+03,1.74988261e+02,-5.62408637e-06,6.49351360,4.71127469,1.34688457,-2.84509858,2.17448206e+02,7.57930051,-1.13091035e-01,-1,-0.7291425057256578
1.91305561e+03,1.74988119e+02,-5.59759897e-06,6.49336679,4.71240331,1.34455393,-2.84509858,2.17356361e+02,7.58137591,-1.06870502e-01,-1,-0.7245494307142215
1.93850182e+03,1.74987978e+02,-5.57111158e-06,6.49321999,4.71353193,1.34222330,-2.84509859,2.17264516e+02,7.58345130,-1.00649969e-01,-1,-0.7199563575077981
1.96435290e+03,1.74987835e+02,-5.54480171e-06,6.49307334,4.71466224,1.33988934,-2.84509859,2.17173919e+02,7.58552945,-9.44211842e-02,-1,-0.7152902047524325
1.99133253e+03,1.74987688e+02,-5.51898668e-06,6.49292712,4.71579730,1.33754611,-2.84509859,2.17086805e+02,7.58761527,-8.81693985e-02,-1,-0.7104203472894856
2.01831216e+03,1.74987542e+02,-5.49317165e-06,6.49278090,4.71693236,1.33520289,-2.84509859,2.16999691e+02,7.58970109,-8.19176129e-02,-1,-0.7055504898265385
2.04529180e+03,1.74987395e+02,-5.46735662e-06,6.49263468,4.71806742,1.33285966,-2.84509859,2.16912576e+02,7.59178692,-7.56658272e-02,-1,-0.7006806305585787
2.07238640e+03,1.74987247e+02,-5.44181844e-06,6.49248868,4.71920250,1.33051649,-2.84509859,2.16835256e+02,7.59387248,-6.94164797e-02,-1,-0.6957900208646887
2.10103320e+03,1.74987095e+02,-5.42001807e-06,6.49234558,4.72033790,1.32817413,-2.84509860,2.16890165e+02,7.59595453,-6.32000481e-02,-1,-0.6906192371004356
2.12968000e+03,1.74986942e+02,-5.39821770e-06,6.49220248,4.72147331,1.32583177,-2.84509860,2.16945073e+02,7.59803657,-5.69836166e-02,-1,-0.6854484533361827
2.15832680e+03,1.74986789e+02,-5.37641733e-06,6.49205938,4.72260872,1.32348941,-2.84509860,2.16999982e+02,7.60011861,-5.07671850e-02,-1,-0.6802776695719297
