star_age,star_mass,star_mdot,log_L,log_Teff,log_R,log_surf_z,v_wind_Km_per_s,log_center_T,log_center_Rho,phase,x
3.87024407e+02,2.99994567e+02,-1.45133564e-05,6.80579127,4.65015189,1.62526901,-2.84509851,2.97698402e+02,7.44159125,-6.84341518e-01,-1,-1.0
3.92476559e+02,2.99994488e+02,-1.45206941e-05,6.80585123,4.65059271,1.62441735,-2.84509851,2.98310686e+02,7.44244429,-6.81779754e-01,-1,-0.9987810929345337
3.97928711e+02,2.99994408e+02,-1.45280318e-05,6.80591119,4.65103353,1.62356569,-2.84509851,2.98922969e+02,7.44329734,-6.79217989e-01,-1,-0.9975621858690672
4.03380862e+02,2.99994328e+02,-1.45353695e-05,6.80597116,4.65147435,1.62271403,-2.84509851,2.99535253e+02,7.44415039,-6.76656224e-01,-1,-0.9963432790271652
4.08833014e+02,2.99994249e+02,-1.45427072e-05,6.80603112,4.65191517,1.62186237,-2.84509851,3.00147536e+02,7.44500344,-6.74094460e-01,-1,-0.9951243719616988
4.14285166e+02,2.99994169e+02,-1.45500449e-05,6.80609108,4.65235599,1.62101071,-2.84509851,3.00759820e+02,7.44585649,-6.71532695e-01,-1,-0.9939054648962324
4.19737317e+02,2.99994089e+02,-1.45573825e-05,6.80615105,4.65279681,1.62015905,-2.84509851,3.01372103e+02,7.44670953,-6.68970931e-01,-1,-0.9926865580543304
4.25189469e+02,2.99994009e+02,-1.45647202e-05,6.80621101,4.65323763,1.61930740,-2.84509851,3.01984386e+02,7.44756258,-6.66409166e-01,-1,-0.991467650988864
4.30641621e+02,2.99993930e+02,-1.45720579e-05,6.80627097,4.65367845,1.61845574,-2.84509851,3.02596670e+02,7.44841563,-6.63847401e-01,-1,-0.9902487439233976
4.36093772e+02,2.99993850e+02,-1.45793956e-05,6.80633094,4.65411927,1.61760408,-2.84509851,3.03208953e+02,7.44926868,-6.61285637e-01,-1,-0.9890298370814956
4.41545924e+02,2.99993770e+02,-1.45867333e-05,6.80639090,4.65456009,1.61675242,-2.84509851,3.03821237e+02,7.45012172,-6.58723872e-01,-1,-0.9878109300160292
4.46998076e+02,2.99993691e+02,-1.45940709e-05,6.80645086,4.65500091,1.61590076,-2.84509851,3.04433520e+02,7.45097477,-6.56162108e-01,-1,-0.9865920229505628
4.52450227e+02,2.99993611e+02,-1.46014086e-05,6.80651083,4.65544173,1.61504910,-2.84509851,3.05045804e+02,7.45182782,-6.53600343e-01,-1,-0.9853731161086609
4.57902379e+02,2.99993531e+02,-1.46087463e-05,6.80657079,4.65588255,1.61419744,-2.84509851,3.05658087e+02,7.45268087,-6.51038578e-01,-1,-0.9841542090431944
4.63354531e+02,2.99993452e+02,-1.46160840e-05,6.80663076,4.65632337,1.61334578,-2.84509851,3.06270370e+02,7.45353392,-6.48476814e-01,-1,-0.982935301977728
4.69553509e+02,2.99993361e+02,-1.46231244e-05,6.80668189,4.65681195,1.61239421,-2.84509851,3.06946314e+02,7.45448130,-6.45630875e-01,-1,-0.9815494312091084
4.75935854e+02,2.99993267e+02,-1.46300918e-05,6.80673087,4.65731224,1.61141810,-2.84509851,3.07637887e+02,7.45545184,-6.42715164e-01,-1,-0.980122566107999
4.82318199e+02,2.99993173e+02,-1.46370592e-05,6.80677984,4.65781254,1.61044200,-2.84509851,3.08329461e+02,7.45642238,-6.39799453e-01,-1,-0.9786957010068895
4.88700544e+02,2.99993079e+02,-1.46440266e-05,6.80682881,4.65831283,1.60946589,-2.84509851,3.09021034e+02,7.45739292,-6.36883741e-01,-1,-0.9772688359057801
4.95082889e+02,2.99992985e+02,-1.46509940e-05,6.80687778,4.65881313,1.60848979,-2.84509851,3.09712608e+02,7.45836346,-6.33968030e-01,-1,-0.9758419708046706
5.01465234e+02,2.99992892e+02,-1.46579614e-05,6.80692676,4.65931342,1.60751368,-2.84509851,3.10404181e+02,7.45933400,-6.31052319e-01,-1,-0.9744151057035612
5.07847579e+02,2.99992798e+02,-1.46649288e-05,6.80697573,4.65981372,1.60653757,-2.84509851,3.11095755e+02,7.46030454,-6.28136608e-01,-1,-0.9729882406024517
5.14229924e+02,2.99992704e+02,-1.46718962e-05,6.80702470,4.66031402,1.60556147,-2.84509851,3.11787328e+02,7.46127508,-6.25220896e-01,-1,-0.9715613755013423
5.20612269e+02,2.99992610e+02,-1.46788635e-05,6.80707367,4.66081431,1.60458536,-2.84509851,3.12478901e+02,7.46224562,-6.22305185e-01,-1,-0.9701345104002328
5.26994615e+02,2.99992517e+02,-1.46858309e-05,6.80712265,4.66131461,1.60360926,-2.84509851,3.13170475e+02,7.46321615,-6.19389474e-01,-1,-0.968707645075559
5.33392317e+02,2.99992423e+02,-1.46927217e-05,6.80717154,4.66181593,1.60263107,-2.84509851,3.13861828e+02,7.46418860,-6.16468049e-01,-1,-0.9672773466960294
5.40622493e+02,2.99992316e+02,-1.46954584e-05,6.80721630,4.66237259,1.60154012,-2.84509851,3.14541229e+02,7.46526437,-6.13236890e-01,-1,-0.9656609367700102
5.47852668e+02,2.99992210e+02,-1.46981952e-05,6.80726105,4.66292926,1.60044916,-2.84509851,3.15220630e+02,7.46634013,-6.10005731e-01,-1,-0.9640445270675554
5.55082843e+02,2.99992103e+02,-1.47009319e-05,6.80730581,4.66348593,1.59935820,-2.84509851,3.15900030e+02,7.46741589,-6.06774572e-01,-1,-0.9624281173651006
5.62313018e+02,2.99991997e+02,-1.47036687e-05,6.80735057,4.66404259,1.59826725,-2.84509851,3.16579431e+02,7.46849166,-6.03543414e-01,-1,-0.9608117076626457
5.69543194e+02,2.99991891e+02,-1.47064054e-05,6.80739532,4.66459926,1.59717629,-2.84509851,3.17258832e+02,7.46956742,-6.00312255e-01,-1,-0.9591952977366265
5.76773369e+02,2.99991784e+02,-1.47091421e-05,6.80744008,4.66515593,1.59608533,-2.84509851,3.17938233e+02,7.47064319,-5.97081096e-01,-1,-0.9575788880341717
5.84003544e+02,2.99991678e+02,-1.47118789e-05,6.80748484,4.66571260,1.59499438,-2.84509851,3.18617634e+02,7.47171895,-5.93849938e-01,-1,-0.9559624783317168
5.91233719e+02,2.99991571e+02,-1.47146156e-05,6.80752959,4.66626926,1.59390342,-2.84509851,3.19297035e+02,7.47279472,-5.90618779e-01,-1,-0.954346068629262
5.98463895e+02,2.99991465e+02,-1.47173524e-05,6.80757435,4.66682593,1.59281246,-2.84509851,3.19976436e+02,7.47387048,-5.87387620e-01,-1,-0.9527296587032428
6.06450934e+02,2.99991347e+02,-1.47171716e-05,6.80761480,4.66742941,1.59162574,-2.84509851,3.20656691e+02,7.47503446,-5.83891195e-01,-1,-0.9509440411582338
6.14500040e+02,2.99991229e+02,-1.47167516e-05,6.80765490,4.66803672,1.59043116,-2.84509851,3.21337016e+02,7.47620566,-5.80373017e-01,-1,-0.949144547641896
6.22549146e+02,2.99991110e+02,-1.47163317e-05,6.80769500,4.66864403,1.58923658,-2.84509851,3.22017342e+02,7.47737687,-5.76854839e-01,-1,-0.9473450541255583
6.30598253e+02,2.99990992e+02,-1.47159117e-05,6.80773509,4.66925135,1.58804201,-2.84509851,3.22697667e+02,7.47854808,-5.73336660e-01,-1,-0.9455455603856561
6.38647359e+02,2.99990874e+02,-1.47154917e-05,6.80777519,4.66985866,1.58684743,-2.84509851,3.23377992e+02,7.47971929,-5.69818482e-01,-1,-0.9437460668693184
6.46696465e+02,2.99990755e+02,-1.47150717e-05,6.80781529,4.67046597,1.58565285,-2.84509851,3.24058318e+02,7.48089050,-5.66300304e-01,-1,-0.9419465733529806
6.54745572e+02,2.99990637e+02,-1.47146517e-05,6.80785539,4.67107329,1.58445827,-2.84509851,3.24738643e+02,7.48206171,-5.62782125e-01,-1,-0.9401470796130784
6.62794678e+02,2.99990518e+02,-1.47142317e-05,6.80789549,4.67168060,1.58326369,-2.84509851,3.25418969e+02,7.48323291,-5.59263947e-01,-1,-0.9383475860967406
6.71591178e+02,2.99990389e+02,-1.47115922e-05,6.80793421,4.67233323,1.58197780,-2.84509851,3.26109410e+02,7.48448614,-5.55500375e-01,-1,-0.9363810018926731
6.80527605e+02,2.99990258e+02,-1.47085371e-05,6.80797267,4.67299434,1.58067482,-2.84509851,3.26801745e+02,7.48575472,-5.51690860e-01,-1,-0.9343831349934516
6.89464031e+02,2.99990127e+02,-1.47054821e-05,6.80801114,4.67365545,1.57937183,-2.84509851,3.27494080e+02,7.48702330,-5.47881345e-01,-1,-0.9323852683177944
6.98400457e+02,2.99989995e+02,-1.47024270e-05,6.80804960,4.67431656,1.57806884,-2.84509851,3.28186415e+02,7.48829187,-5.44071830e-01,-1,-0.9303874016421372
7.07336883e+02,2.99989864e+02,-1.46993720e-05,6.80808807,4.67497766,1.57676586,-2.84509851,3.28878750e+02,7.48956045,-5.40262316e-01,-1,-0.92838953496648
7.16273309e+02,2.99989733e+02,-1.46963169e-05,6.80812654,4.67563877,1.57546287,-2.84509852,3.29571085e+02,7.49082903,-5.36452801e-01,-1,-0.9263916682908229
7.25209735e+02,2.99989602e+02,-1.46932618e-05,6.80816500,4.67629988,1.57415988,-2.84509852,3.30263420e+02,7.49209761,-5.32643286e-01,-1,-0.9243938016151657
7.34146161e+02,2.99989470e+02,-1.46902068e-05,6.80820347,4.67696099,1.57285690,-2.84509852,3.30955755e+02,7.49336619,-5.28833771e-01,-1,-0.9223959349395086
7.43196076e+02,2.99989337e+02,-1.46868394e-05,6.80824130,4.67762793,1.57154195,-2.84509852,3.31649008e+02,7.49464586,-5.24990936e-01,-1,-0.9203726961641827
7.53193274e+02,2.99989191e+02,-1.46808648e-05,6.80827383,4.67834347,1.57012712,-2.84509852,3.32349928e+02,7.49601809,-5.20869973e-01,-1,-0.9181376786376966
7.63190473e+02,2.99989045e+02,-1.46748903e-05,6.80830636,4.67905902,1.56871230,-2.84509852,3.33050848e+02,7.49739033,-5.16749011e-01,-1,-0.9159026608876459
7.73187671e+02,2.99988899e+02,-1.46689158e-05,6.80833889,4.67977456,1.56729748,-2.84509852,3.33751768e+02,7.49876257,-5.12628049e-01,-1,-0.9136676433611598
7.83184870e+02,2.99988752e+02,-1.46629413e-05,6.80837142,4.68049010,1.56588265,-2.84509852,3.34452687e+02,7.50013480,-5.08507086e-01,-1,-0.9114326256111093
7.93182068e+02,2.99988606e+02,-1.46569668e-05,6.80840395,4.68120565,1.56446783,-2.84509852,3.35153607e+02,7.50150704,-5.04386124e-01,-1,-0.9091976080846231
8.03179267e+02,2.99988460e+02,-1.46509923e-05,6.80843648,4.68192119,1.56305301,-2.84509852,3.35854527e+02,7.50287927,-5.00265161e-01,-1,-0.9069625903345726
8.13176465e+02,2.99988314e+02,-1.46450178e-05,6.80846901,4.68263674,1.56163818,-2.84509852,3.36555447e+02,7.50425151,-4.96144199e-01,-1,-0.9047275728080865
8.23173664e+02,2.99988167e+02,-1.46390433e-05,6.80850155,4.68335228,1.56022336,-2.84509852,3.37256366e+02,7.50562375,-4.92023237e-01,-1,-0.9024925550580358
8.33170862e+02,2.99988021e+02,-1.46330688e-05,6.80853408,4.68406783,1.55880854,-2.84509852,3.37957286e+02,7.50699598,-4.87902274e-01,-1,-0.9002575375315497
8.43963016e+02,2.99987864e+02,-1.46212933e-05,6.80855647,4.68481517,1.55732504,-2.84509852,3.38572058e+02,7.50843820,-4.83570275e-01,-1,-0.8978447961475602
8.55039059e+02,2.99987703e+02,-1.46074462e-05,6.80857524,4.68557388,1.55581701,-2.84509852,3.39156066e+02,7.50990540,-4.79162911e-01,-1,-0.8953685872909272
8.66115103e+02,2.99987542e+02,-1.45935991e-05,6.80859402,4.68633259,1.55430899,-2.84509852,3.39740074e+02,7.51137260,-4.74755547e-01,-1,-0.8928923782107296
8.77191146e+02,2.99987381e+02,-1.45797520e-05,6.80861279,4.68709129,1.55280096,-2.84509852,3.40324081e+02,7.51283980,-4.70348184e-01,-1,-0.8904161693540966
8.88267189e+02,2.99987220e+02,-1.45659049e-05,6.80863157,4.68785000,1.55129294,-2.84509852,3.40908089e+02,7.51430701,-4.65940820e-01,-1,-0.8879399604974635
8.99343233e+02,2.99987059e+02,-1.45520578e-05,6.80865034,4.68860871,1.54978491,-2.84509852,3.41492097e+02,7.51577421,-4.61533456e-01,-1,-0.8854637514172661
9.10419276e+02,2.99986898e+02,-1.45382107e-05,6.80866912,4.68936741,1.54827689,-2.84509852,3.42076104e+02,7.51724141,-4.57126092e-01,-1,-0.882987542560633
9.21966173e+02,2.99986731e+02,-1.45220659e-05,6.80868799,4.69014834,1.54672447,-2.84509852,3.42633960e+02,7.51874985,-4.52595148e-01,-1,-0.8804060675141719
9.33996953e+02,2.99986558e+02,-1.45035597e-05,6.80870697,4.69095210,1.54512644,-2.84509852,3.43164941e+02,7.52030066,-4.47937203e-01,-1,-0.8777164134573754
9.46027732e+02,2.99986384e+02,-1.44850535e-05,6.80872594,4.69175586,1.54352841,-2.84509852,3.43695922e+02,7.52185147,-4.43279259e-01,-1,-0.8750267596241431
9.58058511e+02,2.99986211e+02,-1.44665473e-05,6.80874492,4.69255962,1.54193038,-2.84509852,3.44226903e+02,7.52340228,-4.38621314e-01,-1,-0.8723371057909108
9.70089291e+02,2.99986037e+02,-1.44480411e-05,6.80876390,4.69336338,1.54033234,-2.84509852,3.44757884e+02,7.52495309,-4.33963369e-01,-1,-0.8696474517341143
9.82120070e+02,2.99985864e+02,-1.44295349e-05,6.80878288,4.69416714,1.53873431,-2.84509852,3.45288865e+02,7.52650390,-4.29305425e-01,-1,-0.866957797900882
9.94336124e+02,2.99985688e+02,-1.44103554e-05,6.80880134,4.69497833,1.53712116,-2.84509852,3.45813437e+02,7.52806885,-4.24604893e-01,-1,-0.8642267231742935
1.00728596e+03,2.99985503e+02,-1.43885091e-05,6.80881774,4.69581896,1.53544810,-2.84509852,3.46312627e+02,7.52968983,-4.19735697e-01,-1,-0.8613316009185253
1.02023579e+03,2.99985318e+02,-1.43666629e-05,6.80883414,4.69665959,1.53377504,-2.84509852,3.46811816e+02,7.53131081,-4.14866501e-01,-1,-0.8584364800041435
1.03318562e+03,2.99985133e+02,-1.43448166e-05,6.80885055,4.69750022,1.53210199,-2.84509852,3.47311006e+02,7.53293178,-4.09997305e-01,-1,-0.8555413590897617
1.04613545e+03,2.99984948e+02,-1.43229703e-05,6.80886695,4.69834085,1.53042893,-2.84509853,3.47810196e+02,7.53455276,-4.05128109e-01,-1,-0.8526462381753799
1.05908528e+03,2.99984763e+02,-1.43011241e-05,6.80888335,4.69918148,1.52875588,-2.84509853,3.48309386e+02,7.53617373,-4.00258914e-01,-1,-0.849751117260998
1.07246024e+03,2.99984573e+02,-1.42794348e-05,6.80890025,4.70003809,1.52705110,-2.84509853,3.48833095e+02,7.53782254,-3.95306870e-01,-1,-0.8467609524152031
1.08640867e+03,2.99984375e+02,-1.42579573e-05,6.80891782,4.70091627,1.52530352,-2.84509853,3.49389880e+02,7.53950888,-3.90243068e-01,-1,-0.8436425800955826
1.10035710e+03,2.99984178e+02,-1.42364798e-05,6.80893539,4.70179445,1.52355594,-2.84509853,3.49946665e+02,7.54119522,-3.85179266e-01,-1,-0.8405242077759622
1.11430552e+03,2.99983981e+02,-1.42150023e-05,6.80895296,4.70267264,1.52180836,-2.84509853,3.50503450e+02,7.54288156,-3.80115464e-01,-1,-0.8374058376919856
1.12825395e+03,2.99983783e+02,-1.41935248e-05,6.80897054,4.70355082,1.52006079,-2.84509853,3.51060235e+02,7.54456790,-3.75051663e-01,-1,-0.8342874653723651
1.14220238e+03,2.99983586e+02,-1.41720473e-05,6.80898811,4.70442900,1.51831321,-2.84509853,3.51617020e+02,7.54625424,-3.69987861e-01,-1,-0.8311690930527447
1.15615081e+03,2.99983389e+02,-1.41505698e-05,6.80900568,4.70530718,1.51656563,-2.84509853,3.52173805e+02,7.54794058,-3.64924059e-01,-1,-0.8280507207331241
1.17129257e+03,2.99983177e+02,-1.41256257e-05,6.80901661,4.70621552,1.51475441,-2.84509853,3.52689058e+02,7.54968568,-3.59683377e-01,-1,-0.8246655623135503
1.18644532e+03,2.99982965e+02,-1.41006498e-05,6.80902748,4.70712415,1.51294260,-2.84509853,3.53203928e+02,7.55143132,-3.54441068e-01,-1,-0.821277946921271
1.20159807e+03,2.99982753e+02,-1.40756739e-05,6.80903835,4.70803277,1.51113079,-2.84509853,3.53718799e+02,7.55317696,-3.49198758e-01,-1,-0.8178903315289918
1.21675081e+03,2.99982542e+02,-1.40506980e-05,6.80904922,4.70894139,1.50931898,-2.84509853,3.54233669e+02,7.55492260,-3.43956449e-01,-1,-0.8145027183723565
1.23190356e+03,2.99982330e+02,-1.40257221e-05,6.80906009,4.70985001,1.50750717,-2.84509853,3.54748540e+02,7.55666824,-3.38714139e-01,-1,-0.8111151029800774
1.24705631e+03,2.99982118e+02,-1.40007461e-05,6.80907096,4.71075863,1.50569536,-2.84509853,3.55263411e+02,7.55841388,-3.33471830e-01,-1,-0.8077274875877981
1.26220905e+03,2.99981907e+02,-1.39757702e-05,6.80908183,4.71166726,1.50388356,-2.84509853,3.55778281e+02,7.56015952,-3.28229520e-01,-1,-0.8043398744311628
1.27845832e+03,2.99981683e+02,-1.39374164e-05,6.80907676,4.71259085,1.50203382,-2.84509853,3.55976112e+02,7.56194929,-3.22852806e-01,-1,-0.8007071162080481
1.29485317e+03,2.99981458e+02,-1.38972863e-05,6.80906956,4.71351644,1.50017905,-2.84509853,3.56131850e+02,7.56374491,-3.17458248e-01,-1,-0.7970418114802522
1.31124801e+03,2.99981232e+02,-1.38571563e-05,6.80906237,4.71444203,1.49832428,-2.84509853,3.56287588e+02,7.56554054,-3.12063689e-01,-1,-0.7933765089881003
1.32764286e+03,2.99981007e+02,-1.38170263e-05,6.80905517,4.71536761,1.49646951,-2.84509854,3.56443326e+02,7.56733616,-3.06669130e-01,-1,-0.7897112042603045
1.34403770e+03,2.99980782e+02,-1.37768963e-05,6.80904798,4.71629320,1.49461474,-2.84509854,3.56599065e+02,7.56913179,-3.01274572e-01,-1,-0.7860459017681525
1.36062479e+03,2.99980554e+02,-1.37364661e-05,6.80904089,4.71722306,1.49275148,-2.84509854,3.56749957e+02,7.57093488,-2.95857620e-01,-1,-0.7823376190209864
1.37813519e+03,2.99980317e+02,-1.36945938e-05,6.80903429,4.71817346,1.49084738,-2.84509854,3.56877578e+02,7.57277386,-2.90333112e-01,-1,-0.7784229170319108
1.39564560e+03,2.99980080e+02,-1.36527215e-05,6.80902769,4.71912385,1.48894329,-2.84509854,3.57005198e+02,7.57461283,-2.84808605e-01,-1,-0.7745082128071912
1.41315600e+03,2.99979844e+02,-1.36108492e-05,6.80902110,4.72007425,1.48703920,-2.84509854,3.57132818e+02,7.57645180,-2.79284097e-01,-1,-0.7705935108181156
1.43066640e+03,2.99979607e+02,-1.35689769e-05,6.80901450,4.72102465,1.48513510,-2.84509854,3.57260439e+02,7.57829077,-2.73759590e-01,-1,-0.7666788088290398
1.44823664e+03,2.99979369e+02,-1.35273645e-05,6.80900801,4.72197608,1.48322899,-2.84509854,3.57395525e+02,7.58013121,-2.68230752e-01,-1,-0.7627507287465439
1.46694838e+03,2.99979120e+02,-1.34907109e-05,6.80900367,4.72294730,1.48128440,-2.84509854,3.57673043e+02,7.58199953,-2.62619295e-01,-1,-0.7585674499067079
1.48566012e+03,2.99978871e+02,-1.34540573e-05,6.80899933,4.72391851,1.47933980,-2.84509854,3.57950561e+02,7.58386785,-2.57007838e-01,-1,-0.7543841710668717
1.50437186e+03,2.99978621e+02,-1.34174037e-05,6.80899499,4.72488972,1.47739520,-2.84509854,3.58228079e+02,7.58573617,-2.51396381e-01,-1,-0.7502008922270356
1.52308360e+03,2.99978372e+02,-1.33807501e-05,6.80899065,4.72586094,1.47545061,-2.84509854,3.58505597e+02,7.58760449,-2.45784924e-01,-1,-0.7460176133871994
1.54179535e+03,2.99978123e+02,-1.33440965e-05,6.80898631,4.72683215,1.47350601,-2.84509854,3.58783115e+02,7.58947281,-2.40173467e-01,-1,-0.7418343323117194
1.56094279e+03,2.99977870e+02,-1.33065520e-05,6.80897931,4.72780513,1.47155655,-2.84509854,3.59036339e+02,7.59134469,-2.34555522e-01,-1,-0.7375536464648109
1.58111938e+03,2.99977606e+02,-1.32669031e-05,6.80896603,4.72878229,1.46959560,-2.84509855,3.59232176e+02,7.59322495,-2.28922250e-01,-1,-0.7330428793203845
1.60129598e+03,2.99977342e+02,-1.32272543e-05,6.80895275,4.72975944,1.46763464,-2.84509855,3.59428014e+02,7.59510522,-2.23288979e-01,-1,-0.7285321099403141
1.62147257e+03,2.99977079e+02,-1.31876055e-05,6.80893947,4.73073660,1.46567369,-2.84509855,3.59623851e+02,7.59698549,-2.17655708e-01,-1,-0.7240213427958877
1.64164917e+03,2.99976815e+02,-1.31479567e-05,6.80892619,4.73171375,1.46371274,-2.84509855,3.59819689e+02,7.59886576,-2.12022437e-01,-1,-0.7195105734158174
1.66182576e+03,2.99976552e+02,-1.31083079e-05,6.80891290,4.73269091,1.46175179,-2.84509855,3.60015526e+02,7.60074603,-2.06389166e-01,-1,-0.714999806271391
1.68200236e+03,2.99976288e+02,-1.30686590e-05,6.80889962,4.73366806,1.45979084,-2.84509855,3.60211364e+02,7.60262630,-2.00755895e-01,-1,-0.7104890368913206
1.70354701e+03,2.99976012e+02,-1.30124188e-05,6.80886766,4.73463868,1.45783363,-2.84509855,3.59929119e+02,7.60450826,-1.95153486e-01,-1,-0.7056724202401341
1.72525088e+03,2.99975735e+02,-1.29542476e-05,6.80883353,4.73560853,1.45587685,-2.84509855,3.59591232e+02,7.60639040,-1.89554668e-01,-1,-0.7008202076659129
1.74695475e+03,2.99975459e+02,-1.28960764e-05,6.80879940,4.73657839,1.45392007,-2.84509855,3.59253346e+02,7.60827255,-1.83955851e-01,-1,-0.6959679950916919
1.76865862e+03,2.99975182e+02,-1.28379052e-05,6.80876527,4.73754825,1.45196330,-2.84509855,3.58915460e+02,7.61015470,-1.78357033e-01,-1,-0.691115782517471
1.79036249e+03,2.99974905e+02,-1.27797340e-05,6.80873114,4.73851810,1.45000652,-2.84509855,3.58577573e+02,7.61203685,-1.72758216e-01,-1,-0.68626356994325
1.81298989e+03,2.99974620e+02,-1.27230382e-05,6.80869810,4.73949278,1.44804065,-2.84509856,3.58264119e+02,7.61392076,-1.67153438e-01,-1,-0.6812048889429525
1.83607959e+03,2.99974332e+02,-1.26670808e-05,6.80866560,4.74046987,1.44607022,-2.84509856,3.57962895e+02,7.61580556,-1.61545675e-01,-1,-0.6760428541226651
1.85916929e+03,2.99974043e+02,-1.26111234e-05,6.80863310,4.74144695,1.44409980,-2.84509856,3.57661672e+02,7.61769036,-1.55937913e-01,-1,-0.6708808193023776
1.88225898e+03,2.99973755e+02,-1.25551660e-05,6.80860061,4.74242404,1.44212937,-2.84509856,3.57360448e+02,7.61957516,-1.50330150e-01,-1,-0.6657187867177342
1.90534868e+03,2.99973466e+02,-1.24992086e-05,6.80856811,4.74340113,1.44015894,-2.84509856,3.57059224e+02,7.62145996,-1.44722388e-01,-1,-0.6605567518974469
