star_age,star_mass,star_mdot,log_Teff,log_R,log_surf_z,surface_h1,surface_he3,log_center_T,log_center_Rho,phase,x
1.79267308e+02,7.19999949,-2.25317842e-09,3.65943561,2.00304219,-3.34509848,7.49859684e-01,4.14389329e-05,5.71667134,-4.17043024,-1,-1.0
1.87041414e+02,7.19999947,-2.22683874e-09,3.65958538,2.00114443,-3.34509848,7.49859684e-01,4.14389329e-05,5.71855766,-4.16477118,-1,-0.9999665738901523
1.95121239e+02,7.19999945,-2.20023562e-09,3.65979633,1.99919133,-3.34509848,7.49859684e-01,4.14389329e-05,5.72049804,-4.15894983,-1,-0.9999318332887249
2.03523004e+02,7.19999943,-2.17359628e-09,3.65999854,1.99718284,-3.34509848,7.49859684e-01,4.14389329e-05,5.72249357,-4.15296309,-1,-0.9998957084507302
2.12278164e+02,7.19999941,-2.14648793e-09,3.66017194,1.99511548,-3.34509848,7.49859684e-01,4.14389329e-05,5.72454806,-4.14680019,-1,-0.9998580641299691
2.21410299e+02,7.19999940,-2.11833056e-09,3.66035659,1.99298623,-3.34509848,7.49859684e-01,4.14389329e-05,5.72666402,-4.14045377,-1,-0.9998187989401642
2.30164465e+02,7.19999938,-2.09143704e-09,3.66160238,1.99088449,-3.34509848,7.49859684e-01,4.14389329e-05,5.72868105,-4.13440590,-1,-0.9997811588932777
2.33821821e+02,7.19999937,-2.07035434e-09,3.67050211,1.98935783,-3.34509848,7.49859684e-01,4.14389329e-05,5.72961390,-4.13163216,-1,-0.9997654334602301
2.41829134e+02,7.19999935,-2.28270794e-09,3.67380690,1.98711583,-3.34509848,7.49859684e-01,4.14389329e-05,5.73164420,-4.12555292,-1,-0.9997310046366557
2.52243785e+02,7.19999933,-2.25424981e-09,3.67411366,1.98450212,-3.34509847,7.49859684e-01,4.14389330e-05,5.73424247,-4.11775935,-1,-0.9996862250480636
2.63082868e+02,7.19999930,-2.22442926e-09,3.67440452,1.98182648,-3.34509847,7.49859684e-01,4.14389330e-05,5.73690290,-4.10977824,-1,-0.9996396205408693
2.74413235e+02,7.19999928,-2.19325473e-09,3.67470260,1.97907961,-3.34509847,7.49859684e-01,4.14389330e-05,5.73963400,-4.10158516,-1,-0.9995909036733663
2.86227948e+02,7.19999925,-2.15926020e-09,3.67500742,1.97626354,-3.34509847,7.49859684e-01,4.14389330e-05,5.74243363,-4.09318738,-1,-0.9995401042766824
2.98533588e+02,7.19999923,-2.12378588e-09,3.67531869,1.97337870,-3.34509847,7.49859684e-01,4.14389330e-05,5.74530117,-4.08458477,-1,-0.9994871940546728
3.11352131e+02,7.19999920,-2.08747148e-09,3.67565088,1.97042337,-3.34509847,7.49859684e-01,4.14389330e-05,5.74823817,-4.07577444,-1,-0.9994320785177345
3.24698604e+02,7.19999917,-2.05063673e-09,3.67598155,1.96739829,-3.34509847,7.49859684e-01,4.14389330e-05,5.75124440,-4.06675567,-1,-0.9993746930546887
3.38660717e+02,7.19999914,-2.01327700e-09,3.67631613,1.96429465,-3.34509847,7.49859684e-01,4.14389330e-05,5.75432813,-4.05750497,-1,-0.9993146605412597
3.53217452e+02,7.19999912,-1.97612216e-09,3.67665723,1.96111844,-3.34509847,7.49859684e-01,4.14389330e-05,5.75748386,-4.04803790,-1,-0.9992520713479642
3.68361970e+02,7.19999909,-1.93827794e-09,3.67700345,1.95787289,-3.34509847,7.49859684e-01,4.14389330e-05,5.76070821,-4.03836459,-1,-0.9991869548802625
3.84151219e+02,7.19999906,-1.90021686e-09,3.67739126,1.95455183,-3.34509847,7.49859684e-01,4.14389330e-05,5.76400629,-4.02847097,-1,-0.9991190662804047
4.00653968e+02,7.19999903,-1.86252790e-09,3.67775435,1.95115332,-3.34509847,7.49859684e-01,4.14389330e-05,5.76738210,-4.01834358,-1,-0.999048109864212
4.17794600e+02,7.19999899,-1.82415194e-09,3.67812440,1.94768765,-3.34509847,7.49859684e-01,4.14389330e-05,5.77082409,-4.00801678,-1,-0.9989744107600204
4.35736956e+02,7.19999896,-1.78585028e-09,3.67854517,1.94413808,-3.34509847,7.49859684e-01,4.14389330e-05,5.77434847,-3.99744249,-1,-0.9988972645051865
4.54380863e+02,7.19999893,-1.74757715e-09,3.67893379,1.94052115,-3.34509847,7.49859684e-01,4.14389330e-05,5.77794054,-3.98666670,-1,-0.9988171018108044
4.73873749e+02,7.19999890,-1.71154754e-09,3.67935609,1.93682606,-3.34509847,7.49859684e-01,4.14389330e-05,5.78160959,-3.97565797,-1,-0.9987332887847555
4.94147267e+02,7.19999886,-1.67471461e-09,3.67977896,1.93305764,-3.34509847,7.49859684e-01,4.14389330e-05,5.78535158,-3.96443006,-1,-0.998646119296757
5.15309650e+02,7.19999883,-1.63740864e-09,3.68020621,1.92921815,-3.34509847,7.49859684e-01,4.14389330e-05,5.78916388,-3.95299197,-1,-0.998555127980354
5.37359824e+02,7.19999879,-1.60042050e-09,3.68063237,1.92530744,-3.34509847,7.49859684e-01,4.14389330e-05,5.79304668,-3.94134256,-1,-0.9984603194533948
5.60318855e+02,7.19999876,-1.56327214e-09,3.68106055,1.92132656,-3.34509847,7.49859684e-01,4.14389330e-05,5.79699901,-3.92948369,-1,-0.9983616031389784
5.84305274e+02,7.19999872,-1.52621287e-09,3.68150572,1.91726980,-3.34509847,7.49859684e-01,4.14389330e-05,5.80102622,-3.91740173,-1,-0.9982584693926226
6.09254867e+02,7.19999868,-1.48947603e-09,3.68195766,1.91314495,-3.34509847,7.49859684e-01,4.14389330e-05,5.80511907,-3.90511624,-1,-0.9981511943134981
6.35276390e+02,7.19999864,-1.45294969e-09,3.68240879,1.90894890,-3.34509847,7.49859684e-01,4.14389330e-05,5.80925946,-3.89259234,-1,-0.9980393102864213
6.62427812e+02,7.19999860,-1.41683165e-09,3.68286377,1.90468181,-3.34509847,7.49859684e-01,4.14389330e-05,5.81344000,-3.87981906,-1,-0.9979225680636766
6.90703357e+02,7.19999857,-1.38107977e-09,3.68337770,1.90034435,-3.34509850,7.49859686e-01,4.14389328e-05,5.81766148,-3.86680074,-1,-0.9978009924801725
7.20148768e+02,7.19999853,-1.34541810e-09,3.68384631,1.89594137,-3.34509847,7.49859684e-01,4.14389330e-05,5.82191983,-3.85354045,-1,-0.9976743868559893
7.50851123e+02,7.19999849,-1.30981115e-09,3.68432454,1.89147078,-3.34509847,7.49859684e-01,4.14389330e-05,5.82621665,-3.84002927,-1,-0.9975423767842445
7.82863017e+02,7.19999844,-1.27431098e-09,3.68480663,1.88693280,-3.34509847,7.49859684e-01,4.14389330e-05,5.83055228,-3.82626519,-1,-0.9974047361236622
8.16237007e+02,7.19999840,-1.24102760e-09,3.68534974,1.88232609,-3.34509848,7.49859684e-01,4.14389330e-05,5.83492737,-3.81224228,-1,-0.9972612388963547
8.51015345e+02,7.19999836,-1.20786230e-09,3.68584966,1.87765994,-3.34509847,7.49859684e-01,4.14389330e-05,5.83933531,-3.79797753,-1,-0.9971117034325588
8.87268894e+02,7.19999832,-1.17510807e-09,3.68636806,1.87293259,-3.34509847,7.49859684e-01,4.14389330e-05,5.84377634,-3.78346387,-1,-0.9969558250445819
9.25038521e+02,7.19999827,-1.14236838e-09,3.68688533,1.86814564,-3.34509847,7.49859684e-01,4.14389330e-05,5.84825011,-3.76870427,-1,-0.9967934280177073
9.64395947e+02,7.19999823,-1.11022770e-09,3.68740267,1.86330106,-3.34509847,7.49859684e-01,4.14389330e-05,5.85275553,-3.75369821,-1,-0.9966242039751232
1.00541025e+03,7.19999819,-1.07826506e-09,3.68794279,1.85839881,-3.34509848,7.49859684e-01,4.14389331e-05,5.85729289,-3.73844337,-1,-0.9964478559040518
1.04815174e+03,7.19999814,-1.04732766e-09,3.68848771,1.85344068,-3.34509847,7.49859684e-01,4.14389331e-05,5.86186171,-3.72293796,-1,-0.9962640814945193
1.09268858e+03,7.19999809,-1.01677674e-09,3.68902516,1.84843070,-3.34509847,7.49859684e-01,4.14389331e-05,5.86646017,-3.70718533,-1,-0.9960725876679483
1.13909873e+03,7.19999805,-9.86754763e-10,3.68956527,1.84337005,-3.34509847,7.49859684e-01,4.14389331e-05,5.87108873,-3.69118570,-1,-0.9958730392218701
1.18747291e+03,7.19999800,-9.57489674e-10,3.69014660,1.83825742,-3.34509847,7.49859684e-01,4.14389331e-05,5.87575036,-3.67493103,-1,-0.9956650460899947
1.23786566e+03,7.19999795,-9.28715697e-10,3.69069565,1.83309928,-3.34509847,7.49859684e-01,4.14389332e-05,5.88044209,-3.65843164,-1,-0.9954483737681835
1.29038005e+03,7.19999791,-9.00659326e-10,3.69126147,1.82789560,-3.34509847,7.49859684e-01,4.14389332e-05,5.88516394,-3.64168279,-1,-0.995222579089191
1.34509264e+03,7.19999786,-8.73156171e-10,3.69182295,1.82264961,-3.34509847,7.49859684e-01,4.14389332e-05,5.88991518,-3.62469118,-1,-0.9949873328700899
1.40209120e+03,7.19999781,-8.46049427e-10,3.69238665,1.81736311,-3.34509847,7.49859684e-01,4.14389332e-05,5.89469574,-3.60745471,-1,-0.9947422577286242
1.46151938e+03,7.19999776,-8.19652582e-10,3.69298060,1.81203582,-3.34509847,7.49859684e-01,4.14389333e-05,5.89950649,-3.58996702,-1,-0.994486736016838
1.52347286e+03,7.19999771,-7.94101500e-10,3.69355317,1.80667265,-3.34509847,7.49859684e-01,4.14389333e-05,5.90434637,-3.57223626,-1,-0.9942203563420656
1.58800600e+03,7.19999766,-7.69373014e-10,3.69412749,1.80127753,-3.34509847,7.49859684e-01,4.14389334e-05,5.90921429,-3.55426479,-1,-0.9939428849741095
1.65525709e+03,7.19999761,-7.45115569e-10,3.69476023,1.79584682,-3.34509848,7.49859684e-01,4.14389334e-05,5.91411594,-3.53603913,-1,-0.9936537273112586
1.72527030e+03,7.19999756,-7.21349359e-10,3.69534491,1.79038942,-3.34509847,7.49859684e-01,4.14389335e-05,5.91904784,-3.51757348,-1,-0.9933526934369779
1.79828492e+03,7.19999751,-6.98556572e-10,3.69593678,1.78490664,-3.34509847,7.49859684e-01,4.14389335e-05,5.92401046,-3.49886174,-1,-0.993038754482633
1.87440620e+03,7.19999746,-6.76079162e-10,3.69654237,1.77939662,-3.34509847,7.49859684e-01,4.14389336e-05,5.92888517,-3.48009091,-1,-0.9927114579076923
1.95368567e+03,7.19999740,-6.54347681e-10,3.69716324,1.77386337,-3.34509847,7.49859684e-01,4.14389336e-05,5.93387536,-3.46090859,-1,-0.9923705821500315
2.03623729e+03,7.19999735,-6.33398538e-10,3.69776797,1.76831521,-3.34509847,7.49859684e-01,4.14389337e-05,5.93893239,-3.44148051,-1,-0.9920156372189713
2.12235542e+03,7.19999730,-6.12902848e-10,3.69838592,1.76275172,-3.34509847,7.49859684e-01,4.14389338e-05,5.94403604,-3.42180549,-1,-0.9916453574629124
2.21208080e+03,7.19999724,-5.93096927e-10,3.69899644,1.75717579,-3.34509847,7.49859684e-01,4.14389339e-05,5.94917154,-3.40188182,-1,-0.9912595677131966
2.30551032e+03,7.19999719,-5.73868250e-10,3.69960609,1.75159093,-3.34509847,7.49859684e-01,4.14389340e-05,5.95434066,-3.38171204,-1,-0.9908578513745544
2.40288350e+03,7.19999714,-5.55217427e-10,3.70022056,1.74599853,-3.34509847,7.49859684e-01,4.14389340e-05,5.95954401,-3.36127004,-1,-0.9904391785894268
2.50443041e+03,7.19999708,-5.36970351e-10,3.70083654,1.74040578,-3.34509847,7.49859684e-01,4.14389341e-05,5.96478874,-3.34060541,-1,-0.9900025601321595
2.61017852e+03,7.19999703,-5.19663624e-10,3.70148460,1.73480960,-3.34509847,7.49859684e-01,4.14389342e-05,5.97007376,-3.31969243,-1,-0.9895478778907488
2.72042741e+03,7.19999697,-5.02893708e-10,3.70211362,1.72921725,-3.34509847,7.49859684e-01,4.14389344e-05,5.97539864,-3.29852602,-1,-0.9890738437693045
2.83531400e+03,7.19999691,-4.86607144e-10,3.70273981,1.72363217,-3.34509847,7.49859684e-01,4.14389345e-05,5.98076722,-3.27711585,-1,-0.9885798690566668
2.95495210e+03,7.19999686,-4.70399208e-10,3.70336338,1.71805703,-3.34509847,7.49859684e-01,4.14389346e-05,5.98618014,-3.25545688,-1,-0.9880654644071075
3.07968719e+03,7.19999680,-4.54484925e-10,3.70401667,1.71248790,-3.34509847,7.49859684e-01,4.14389347e-05,5.99164672,-3.23351570,-1,-0.9875291443697681
3.20970287e+03,7.19999674,-4.40578719e-10,3.70464895,1.70693825,-3.34509847,7.49859684e-01,4.14389348e-05,5.99715907,-3.21130880,-1,-0.9869701195247763
3.34528850e+03,7.19999668,-4.26933525e-10,3.70529341,1.70141632,-3.34509847,7.49859684e-01,4.14389350e-05,6.00271981,-3.18886351,-1,-0.9863871457188947
3.48640134e+03,7.19999662,-4.13465604e-10,3.70592672,1.69592196,-3.34509847,7.49859684e-01,4.14389351e-05,6.00832998,-3.16617258,-1,-0.9857804067201266
3.63368121e+03,7.19999656,-4.00479197e-10,3.70655858,1.69046198,-3.34509847,7.49859684e-01,4.14389353e-05,6.01399623,-3.14322153,-1,-0.9851471515120073
3.78700506e+03,7.19999650,-3.87937557e-10,3.70720893,1.68503671,-3.34509847,7.49859684e-01,4.14389354e-05,6.01971917,-3.12000753,-1,-0.984487909169239
3.94698572e+03,7.19999644,-3.75923365e-10,3.70784863,1.67965350,-3.34509847,7.49859684e-01,4.14389356e-05,6.02550407,-3.09649832,-1,-0.9838000447235182
4.11350724e+03,7.19999638,-3.64370087e-10,3.70848495,1.67431661,-3.34509847,7.49859684e-01,4.14389357e-05,6.03135171,-3.07271911,-1,-0.9830840567218725
4.28734596e+03,7.19999632,-3.53386646e-10,3.70912061,1.66903813,-3.34509847,7.49859684e-01,4.14389359e-05,6.03727067,-3.04866263,-1,-0.9823366071565464
4.46827442e+03,7.19999626,-3.42806996e-10,3.70975802,1.66381822,-3.34509847,7.49859684e-01,4.14389360e-05,6.04326042,-3.02433280,-1,-0.9815586740310486
4.65722408e+03,7.19999619,-3.32788805e-10,3.71043189,1.65866562,-3.34509847,7.49859684e-01,4.14389362e-05,6.04933331,-2.99970464,-1,-0.9807462523724243
4.85387481e+03,7.19999613,-3.23187808e-10,3.71107418,1.65358770,-3.34509847,7.49859684e-01,4.14389363e-05,6.05548358,-2.97478313,-1,-0.9799007186348336
5.05915501e+03,7.19999606,-3.14033963e-10,3.71171911,1.64859813,-3.34509847,7.49859684e-01,4.14389365e-05,6.06171966,-2.94954068,-1,-0.9790180810023196
5.27292256e+03,7.19999600,-3.05267317e-10,3.71237227,1.64370098,-3.34509847,7.49859684e-01,4.14389366e-05,6.06804567,-2.92400191,-1,-0.978098950544339
5.49603282e+03,7.19999593,-2.97060162e-10,3.71301662,1.63891442,-3.34509847,7.49859684e-01,4.14389368e-05,6.07447235,-2.89813698,-1,-0.9771396494930151
5.72842395e+03,7.19999586,-2.89239358e-10,3.71365903,1.63424482,-3.34509847,7.49859684e-01,4.14389369e-05,6.08100207,-2.87195276,-1,-0.9761404437400957
5.97099226e+03,7.19999580,-2.81892761e-10,3.71432263,1.62970987,-3.34509847,7.49859684e-01,4.14389370e-05,6.08764881,-2.84542655,-1,-0.9750974794461144
6.22372599e+03,7.19999573,-2.75014922e-10,3.71497521,1.62532033,-3.34509847,7.49859684e-01,4.14389371e-05,6.09441378,-2.81856128,-1,-0.97401080717522
6.48744715e+03,7.19999565,-2.68617220e-10,3.71563260,1.62110086,-3.34509847,7.49859684e-01,4.14389372e-05,6.10131121,-2.79133941,-1,-0.9728768925536139
6.76234373e+03,7.19999558,-2.62676333e-10,3.71629238,1.61706534,-3.34509847,7.49859684e-01,4.14389373e-05,6.10835127,-2.76376207,-1,-0.9716949272858607
7.04913641e+03,7.19999551,-2.57246053e-10,3.71695184,1.61324289,-3.34509847,7.49859684e-01,4.14389373e-05,6.11554563,-2.73581236,-1,-0.9704618126839772
7.34818992e+03,7.19999543,-2.52377090e-10,3.71764988,1.60965192,-3.34509847,7.49859684e-01,4.14389374e-05,6.12290805,-2.70747162,-1,-0.9691759805284094
7.66011577e+03,7.19999535,-2.47996734e-10,3.71832251,1.60633165,-3.34509847,7.49859684e-01,4.14389375e-05,6.13045071,-2.67875130,-1,-0.9678348015264212
7.98542838e+03,7.19999527,-2.44193277e-10,3.71900628,1.60331783,-3.34509847,7.49859684e-01,4.14389375e-05,6.13818746,-2.64964299,-1,-0.966436063840481
8.32462533e+03,7.19999519,-2.41027042e-10,3.71971130,1.60064987,-3.34509847,7.49859684e-01,4.14389375e-05,6.14613888,-2.62014043,-1,-0.9649776280395416
8.67848626e+03,7.19999511,-2.38548771e-10,3.72040953,1.59838795,-3.34509847,7.49859684e-01,4.14389375e-05,6.15432606,-2.59025814,-1,-0.9634561419269286
9.04707144e+03,7.19999502,-2.36806219e-10,3.72111317,1.59657824,-3.34509847,7.49859684e-01,4.14389376e-05,6.16276365,-2.55999193,-1,-0.9618713463613799
9.43162962e+03,7.19999493,-2.35932655e-10,3.72182690,1.59531589,-3.34509847,7.49859684e-01,4.14389376e-05,6.17147292,-2.52938232,-1,-0.9602178721268502
9.83169955e+03,7.19999483,-2.36018552e-10,3.72255383,1.59465178,-3.34509847,7.49859684e-01,4.14389376e-05,6.18049090,-2.49840769,-1,-0.9584977024472842
1.02482935e+04,7.19999474,-2.37274214e-10,3.72329534,1.59470431,-3.34509848,7.49859684e-01,4.14389376e-05,6.18980582,-2.46724061,-1,-0.9567064848931913
1.06812624e+04,7.19999463,-2.39908192e-10,3.72405567,1.59556505,-3.34509848,7.49859684e-01,4.14389376e-05,6.19945968,-2.43592844,-1,-0.9548448604167528
1.11303251e+04,7.19999452,-2.44167277e-10,3.72483805,1.59734374,-3.34509848,7.49859684e-01,4.14389376e-05,6.20945418,-2.40458482,-1,-0.9529140378708942
1.15949442e+04,7.19999441,-2.50347742e-10,3.72565126,1.60012766,-3.34509848,7.49859685e-01,4.14389376e-05,6.21978053,-2.37327999,-1,-0.9509163278996218
1.20745682e+04,7.19999429,-2.58780789e-10,3.72650729,1.60399823,-3.34509848,7.49859685e-01,4.14389376e-05,6.23034838,-2.34217309,-1,-0.948854101772324
1.25677997e+04,7.19999415,-2.69662401e-10,3.72742446,1.60890377,-3.34509848,7.49859685e-01,4.14389376e-05,6.24109549,-2.31117237,-1,-0.9467333678513645
1.30744230e+04,7.19999401,-2.83069425e-10,3.72843304,1.61466797,-3.34509848,7.49859685e-01,4.14389375e-05,6.25182025,-2.28026356,-1,-0.9445550535761035
1.35954878e+04,7.19999386,-2.98622606e-10,3.72956982,1.62088115,-3.34509848,7.49859685e-01,4.14389375e-05,6.26244095,-2.24904066,-1,-0.9423146455803084
1.41351727e+04,7.19999369,-3.15356515e-10,3.73087768,1.62687104,-3.34509848,7.49859685e-01,4.14389375e-05,6.27290980,-2.21694394,-1,-0.9399941772524347
1.46992149e+04,7.19999351,-3.31560322e-10,3.73239771,1.63182410,-3.34509848,7.49859685e-01,4.14389375e-05,6.28324080,-2.18351729,-1,-0.9375689805113656
1.52922283e+04,7.19999331,-3.45431362e-10,3.73413957,1.63510405,-3.34509848,7.49859685e-01,4.14389375e-05,6.29373428,-2.14824920,-1,-0.9350192170981134
1.59145550e+04,7.19999309,-3.56045349e-10,3.73612733,1.63652905,-3.34509848,7.49859685e-01,4.14389375e-05,6.30457953,-2.11123062,-1,-0.9323434160947128
1.65646112e+04,7.19999286,-3.63631259e-10,3.73836788,1.63634246,-3.34509848,7.49859686e-01,4.14389374e-05,6.31589921,-2.07276872,-1,-0.9295483873224831
1.72400364e+04,7.19999261,-3.68841665e-10,3.74089022,1.63490436,-3.34509848,7.49859686e-01,4.14389374e-05,6.32772506,-2.03314263,-1,-0.926644280158381
1.79393652e+04,7.19999235,-3.72609752e-10,3.74371647,1.63254758,-3.34509848,7.49859687e-01,4.14389373e-05,6.34004046,-1.99257216,-1,-0.9236373953425007
1.86592062e+04,7.19999208,-3.75814408e-10,3.74696646,1.62942312,-3.34509848,7.49859688e-01,4.14389372e-05,6.35277634,-1.95117601,-1,-0.920542314784188
1.93932334e+04,7.19999180,-3.78750557e-10,3.75087278,1.62531026,-3.34509848,7.49859689e-01,4.14389370e-05,6.36588192,-1.90915412,-1,-0.9173862382117328
2.01323795e+04,7.19999152,-3.81161061e-10,3.75567183,1.61978793,-3.34509849,7.49859692e-01,4.14389367e-05,6.37905814,-1.86741836,-1,-0.9142081520456731
2.08697277e+04,7.19999124,-3.83052613e-10,3.76135716,1.61289666,-3.34509851,7.49859698e-01,4.14389360e-05,6.39225945,-1.82615542,-1,-0.9110377962608166
2.16004550e+04,7.19999096,-3.84379051e-10,3.76785320,1.60469430,-3.34509857,7.49859710e-01,4.14389347e-05,6.40537594,-1.78555265,-1,-0.9078959081776729
2.23147153e+04,7.19999068,-3.84485425e-10,3.77522547,1.59483425,-3.34509866,7.49859729e-01,4.14389324e-05,6.41822195,-1.74612624,-1,-0.9048248228017293
2.30194626e+04,7.19999041,-3.83400501e-10,3.78319153,1.58376167,-3.34509879,7.49859754e-01,4.14389296e-05,6.43092227,-1.70750767,-1,-0.9017946402103607
2.37275261e+04,7.19999014,-3.81590357e-10,3.79145470,1.57202043,-3.34509893,7.49859784e-01,4.14389262e-05,6.44369032,-1.66897885,-1,-0.898750199045019
2.44440991e+04,7.19998987,-3.78996570e-10,3.79992299,1.55969688,-3.34509944,7.49859930e-01,4.14389108e-05,6.45657037,-1.63031595,-1,-0.8956691698164646
2.51717631e+04,7.19998960,-3.75561279e-10,3.80854957,1.54682699,-3.34510129,7.49860392e-01,4.14388627e-05,6.46960520,-1.59134968,-1,-0.8925404529201166
2.59131183e+04,7.19998932,-3.71207515e-10,3.81729941,1.53342116,-3.34510528,7.49861075e-01,4.14387918e-05,6.48280076,-1.55203564,-1,-0.8893528683475179
2.66699814e+04,7.19998904,-3.65944548e-10,3.82614824,1.51950162,-3.34511189,7.49861968e-01,4.14386993e-05,6.49616864,-1.51230872,-1,-0.886098604883622
2.74445188e+04,7.19998876,-3.59789426e-10,3.83506994,1.50509474,-3.34511995,7.49862987e-01,4.14385939e-05,6.50970937,-1.47215652,-1,-0.8827683477179062
2.82378085e+04,7.19998848,-3.52848863e-10,3.84404928,1.49024859,-3.34512835,7.49864090e-01,4.14384800e-05,6.52342989,-1.43154744,-1,-0.8793574618034061
2.90517285e+04,7.19998819,-3.45217382e-10,3.85306677,1.47500886,-3.34513490,7.49865130e-01,4.14383728e-05,6.53730514,-1.39048532,-1,-0.8758578723551504
2.98872486e+04,7.19998791,-3.37053256e-10,3.86211150,1.45943569,-3.34513528,7.49865856e-01,4.14382979e-05,6.55132078,-1.34895159,-1,-0.8722654095507402
3.07453951e+04,7.19998762,-3.28494541e-10,3.87117400,1.44359262,-3.34513378,7.49866560e-01,4.14382250e-05,6.56547410,-1.30697217,-1,-0.8685756606362798
3.16268026e+04,7.19998734,-3.19734926e-10,3.88024914,1.42754797,-3.34512689,7.49867129e-01,4.14381654e-05,6.57975566,-1.26456762,-1,-0.8647858970395953
