star_age,star_mass,star_mdot,log_Teff,log_R,log_surf_z,surface_h1,surface_he3,log_center_T,log_center_Rho,phase,x
9.72818777e+02,9.79999934e-01,-6.37413819e-11,3.67622570,1.17584587,-3.34509847,7.49859684e-01,4.14389330e-05,5.71463814,-2.52157790,-1,-1.0
1.02368720e+03,9.79999930e-01,-6.27654904e-11,3.67644297,1.17328787,-3.34509847,7.49859684e-01,4.14389330e-05,5.71706154,-2.51433732,-1,-0.999997404568794
1.07722629e+03,9.79999927e-01,-6.17624761e-11,3.67666728,1.17063889,-3.34509847,7.49859684e-01,4.14389330e-05,5.71957156,-2.50683587,-1,-0.9999946728736335
1.13356237e+03,9.79999924e-01,-6.07371451e-11,3.67689867,1.16789771,-3.34509847,7.49859684e-01,4.14389330e-05,5.72216958,-2.49907129,-1,-0.9999917984692107
1.19281748e+03,9.79999920e-01,-5.96925340e-11,3.67713706,1.16506340,-3.34509847,7.49859684e-01,4.14389330e-05,5.72485615,-2.49104132,-1,-0.9999887751287464
1.25511072e+03,9.79999916e-01,-5.86306349e-11,3.67738247,1.16213533,-3.34509847,7.49859684e-01,4.14389330e-05,5.72763239,-2.48274185,-1,-0.9999855967754678
1.32057340e+03,9.79999913e-01,-5.75528346e-11,3.67769250,1.15911125,-3.34509847,7.49859684e-01,4.14389330e-05,5.73049952,-2.47417066,-1,-0.9999822567096179
1.38927110e+03,9.79999909e-01,-5.64785059e-11,3.67797908,1.15599288,-3.34509847,7.49859684e-01,4.14389331e-05,5.73345707,-2.46533044,-1,-0.9999787515851449
1.46188981e+03,9.79999905e-01,-5.53641447e-11,3.67825352,1.15276589,-3.34509847,7.49859684e-01,4.14389331e-05,5.73651849,-2.45617739,-1,-0.9999750464011632
1.53814224e+03,9.79999901e-01,-5.42675204e-11,3.67853444,1.14944308,-3.34509847,7.49859684e-01,4.14389331e-05,5.73967150,-2.44674995,-1,-0.9999711558159105
1.61805614e+03,9.79999896e-01,-5.31500207e-11,3.67882247,1.14602691,-3.34509847,7.49859684e-01,4.14389331e-05,5.74291406,-2.43705666,-1,-0.9999670784135137
1.70262677e+03,9.79999892e-01,-5.20157962e-11,3.67911889,1.14249728,-3.34509847,7.49859684e-01,4.14389332e-05,5.74626518,-2.42703582,-1,-0.9999627634133768
1.79117838e+03,9.79999887e-01,-5.08725092e-11,3.67942224,1.13887476,-3.34509847,7.49859684e-01,4.14389332e-05,5.74970542,-2.41674743,-1,-0.9999582452939152
1.88453814e+03,9.79999883e-01,-4.97203528e-11,3.67972930,1.13514508,-3.34509847,7.49859684e-01,4.14389333e-05,5.75324868,-2.40615085,-1,-0.9999534818508949
1.98250184e+03,9.79999878e-01,-4.85596296e-11,3.68005883,1.13131674,-3.34509847,7.49859684e-01,4.14389333e-05,5.75688652,-2.39527117,-1,-0.9999484835036091
2.08578772e+03,9.79999873e-01,-4.74003953e-11,3.68038760,1.12738022,-3.34509847,7.49859684e-01,4.14389334e-05,5.76062850,-2.38408071,-1,-0.9999432136056984
2.19408618e+03,9.79999868e-01,-4.62437060e-11,3.68072114,1.12334696,-3.34509847,7.49859684e-01,4.14389335e-05,5.76446354,-2.37261014,-1,-0.999937687953711
2.30825379e+03,9.79999863e-01,-4.50792820e-11,3.68106081,1.11920614,-3.34509847,7.49859684e-01,4.14389336e-05,5.76840180,-2.36083162,-1,-0.999931862843353
2.42827996e+03,9.79999858e-01,-4.39189779e-11,3.68143563,1.11496157,-3.34509847,7.49859684e-01,4.14389337e-05,5.77243962,-2.34875429,-1,-0.9999257388149522
2.55433216e+03,9.79999852e-01,-4.27706517e-11,3.68179432,1.11061759,-3.34509847,7.49859684e-01,4.14389339e-05,5.77657341,-2.33638690,-1,-0.9999193073237801
2.68677591e+03,9.79999847e-01,-4.16188870e-11,3.68215568,1.10617337,-3.34509847,7.49859684e-01,4.14389341e-05,5.78080382,-2.32372899,-1,-0.9999125497201132
2.82634852e+03,9.79999841e-01,-4.04668231e-11,3.68254138,1.10162236,-3.34509847,7.49859684e-01,4.14389344e-05,5.78513755,-2.31076165,-1,-0.9999054283845944
2.97302338e+03,9.79999835e-01,-3.93251531e-11,3.68291892,1.09697179,-3.34509847,7.49859684e-01,4.14389347e-05,5.78956757,-2.29750565,-1,-0.9998979446749306
3.12720329e+03,9.79999829e-01,-3.81957204e-11,3.68329998,1.09222269,-3.34509847,7.49859684e-01,4.14389351e-05,5.79409268,-2.28396510,-1,-0.9998900780392822
3.28931287e+03,9.79999823e-01,-3.70709820e-11,3.68372374,1.08737380,-3.34509847,7.49859684e-01,4.14389356e-05,5.79871394,-2.27013364,-1,-0.9998818068124993
3.45971480e+03,9.79999817e-01,-3.59718809e-11,3.68414668,1.08242609,-3.34509847,7.49859684e-01,4.14389363e-05,5.80343067,-2.25601595,-1,-0.9998731124897622
3.63881529e+03,9.79999811e-01,-3.48641596e-11,3.68455271,1.07738295,-3.34509847,7.49859684e-01,4.14389372e-05,5.80824011,-2.24161809,-1,-0.9998639743452445
3.82708681e+03,9.79999804e-01,-3.37818661e-11,3.68496461,1.07224555,-3.34509847,7.49859684e-01,4.14389383e-05,5.81314117,-2.22694507,-1,-0.9998543682723728
4.02498185e+03,9.79999798e-01,-3.27128544e-11,3.68539788,1.06701430,-3.34509847,7.49859684e-01,4.14389396e-05,5.81813423,-2.21199355,-1,-0.9998442711840017
4.23298822e+03,9.79999791e-01,-3.16574162e-11,3.68582108,1.06169162,-3.34509847,7.49859684e-01,4.14389414e-05,5.82321709,-2.19677485,-1,-0.9998336581908734
4.45188727e+03,9.79999784e-01,-3.06162920e-11,3.68624599,1.05627783,-3.34509847,7.49859684e-01,4.14389436e-05,5.82837091,-2.18132276,-1,-0.9998224894266022
4.68192014e+03,9.79999777e-01,-2.95885686e-11,3.68667699,1.05077823,-3.34509847,7.49859684e-01,4.14389466e-05,5.83359005,-2.16564522,-1,-0.9998107525876362
4.92364248e+03,9.79999770e-01,-2.85860559e-11,3.68715324,1.04519308,-3.34509847,7.49859684e-01,4.14389503e-05,5.83888019,-2.14974840,-1,-0.999798419323355
5.17756158e+03,9.79999763e-01,-2.76056508e-11,3.68761590,1.03951932,-3.34509847,7.49859684e-01,4.14389552e-05,5.84429743,-2.13351824,-1,-0.9997854637505836
5.44482918e+03,9.79999756e-01,-2.66462962e-11,3.68806901,1.03375836,-3.34509847,7.49859684e-01,4.14389615e-05,5.84980712,-2.11701454,-1,-0.9997718271047337
5.72542195e+03,9.79999749e-01,-2.57031694e-11,3.68852552,1.02791936,-3.34509847,7.49859684e-01,4.14389697e-05,5.85539272,-2.10028114,-1,-0.9997575105761588
6.02039222e+03,9.79999742e-01,-2.47762297e-11,3.68898394,1.02200181,-3.34509847,7.49859684e-01,4.14389804e-05,5.86105719,-2.08331357,-1,-0.9997424604724117
6.33055686e+03,9.79999734e-01,-2.38734706e-11,3.68944598,1.01600595,-3.34509847,7.49859684e-01,4.14389944e-05,5.86679935,-2.06611406,-1,-0.9997266351147894
6.65621327e+03,9.79999726e-01,-2.29913394e-11,3.68991017,1.00993547,-3.34509847,7.49859684e-01,4.14390127e-05,5.87261623,-2.04869085,-1,-0.9997100193292174
6.99890249e+03,9.79999719e-01,-2.21311384e-11,3.69037624,1.00379171,-3.34509847,7.49859684e-01,4.14390368e-05,5.87850446,-2.03105285,-1,-0.9996925344880705
7.35865366e+03,9.79999711e-01,-2.12903024e-11,3.69084693,9.97579683e-01,-3.34509847,7.49859684e-01,4.14390683e-05,5.88446084,-2.01320402,-1,-0.9996741791045546
7.73716625e+03,9.79999703e-01,-2.04801034e-11,3.69135561,9.91295488e-01,-3.34509847,7.49859684e-01,4.14391099e-05,5.89049029,-1.99513710,-1,-0.9996548664675587
8.13471403e+03,9.79999695e-01,-1.96902327e-11,3.69182773,9.84946859e-01,-3.34509847,7.49859684e-01,4.14391646e-05,5.89658515,-1.97687493,-1,-0.9996345826086687
8.55227432e+03,9.79999687e-01,-1.89202540e-11,3.69230589,9.78536662e-01,-3.34509847,7.49859684e-01,4.14392367e-05,5.90274156,-1.95843432,-1,-0.9996132776626306
8.99158295e+03,9.79999679e-01,-1.81715546e-11,3.69278178,9.72062633e-01,-3.34509847,7.49859684e-01,4.14393326e-05,5.90896123,-1.93979859,-1,-0.9995908630631576
9.45288481e+03,9.79999671e-01,-1.74470139e-11,3.69325706,9.65530251e-01,-3.34509847,7.49859684e-01,4.14394590e-05,5.91523906,-1.92098418,-1,-0.9995673263153635
9.93757310e+03,9.79999663e-01,-1.67426956e-11,3.69376368,9.58938129e-01,-3.34509847,7.49859684e-01,4.14396261e-05,5.92157687,-1.90198707,-1,-0.9995425963347809
1.04474021e+04,9.79999655e-01,-1.60660531e-11,3.69425330,9.52288210e-01,-3.34509847,7.49859684e-01,4.14398492e-05,5.92797315,-1.88281550,-1,-0.999516583613759
1.09829065e+04,9.79999646e-01,-1.54067442e-11,3.69472984,9.45587564e-01,-3.34509847,7.49859684e-01,4.14401451e-05,5.93442107,-1.86349033,-1,-0.9994892608711075
1.15454644e+04,9.79999638e-01,-1.47713922e-11,3.69520359,9.38837964e-01,-3.34509847,7.49859684e-01,4.14405381e-05,5.94091896,-1.84401623,-1,-0.9994605577927981
1.21364482e+04,9.79999629e-01,-1.41535269e-11,3.69567274,9.32040840e-01,-3.34509847,7.49859683e-01,4.14410600e-05,5.94746489,-1.82439386,-1,-0.99943040435563
1.27575503e+04,9.79999621e-01,-1.35595842e-11,3.69614177,9.25199225e-01,-3.34509847,7.49859683e-01,4.14417553e-05,5.95405659,-1.80463500,-1,-0.9993987142092212
1.34109689e+04,9.79999612e-01,-1.29906010e-11,3.69667507,9.18308249e-01,-3.34509847,7.49859683e-01,4.14426852e-05,5.96069821,-1.78472485,-1,-0.9993653751960376
1.40971647e+04,9.79999603e-01,-1.24398809e-11,3.69715292,9.11378502e-01,-3.34509847,7.49859683e-01,4.14439243e-05,5.96738030,-1.76469255,-1,-0.9993303638100398
1.48181563e+04,9.79999595e-01,-1.19075446e-11,3.69762999,9.04409810e-01,-3.34509847,7.49859682e-01,4.14455768e-05,5.97410269,-1.74453822,-1,-0.9992935770573247
1.55756889e+04,9.79999586e-01,-1.13935915e-11,3.69810247,8.97404021e-01,-3.34509847,7.49859681e-01,4.14477807e-05,5.98086450,-1.72426585,-1,-0.9992549258935249
1.63717053e+04,9.79999577e-01,-1.09006157e-11,3.69857267,8.90366407e-01,-3.34509847,7.49859680e-01,4.14507220e-05,5.98765978,-1.70389104,-1,-0.9992143111922385
1.72082059e+04,9.79999568e-01,-1.04260212e-11,3.69904739,8.83297267e-01,-3.34509847,7.49859679e-01,4.14546481e-05,5.99448825,-1.68341694,-1,-0.9991716308881708
1.80872886e+04,9.79999559e-01,-9.97058091e-12,3.69952763,8.76198157e-01,-3.34509847,7.49859677e-01,4.14598885e-05,6.00134812,-1.66284636,-1,-0.9991267779413389
1.90109495e+04,9.79999550e-01,-9.53190537e-12,3.69998987,8.69077693e-01,-3.34509847,7.49859675e-01,4.14668818e-05,6.00823138,-1.64220425,-1,-0.9990796505058446
1.99819530e+04,9.79999542e-01,-9.11388128e-12,3.70048445,8.61934950e-01,-3.34509847,7.49859672e-01,4.14762177e-05,6.01513943,-1.62148750,-1,-0.9990301075352468
2.10020631e+04,9.79999532e-01,-8.71244301e-12,3.70094308,8.54781266e-01,-3.34509847,7.49859668e-01,4.14886685e-05,6.02206081,-1.60073230,-1,-0.9989780590259564
2.20741149e+04,9.79999523e-01,-8.32595001e-12,3.70139624,8.47621011e-01,-3.34509847,7.49859662e-01,4.15052601e-05,6.02899115,-1.57994820,-1,-0.9989233603242456
2.32008267e+04,9.79999514e-01,-7.95769049e-12,3.70184335,8.40462523e-01,-3.34509847,7.49859655e-01,4.15273532e-05,6.03592162,-1.55916484,-1,-0.9988658727358078
2.43850713e+04,9.79999505e-01,-7.60522669e-12,3.70228441,8.33316647e-01,-3.34509847,7.49859645e-01,4.15567245e-05,6.04284233,-1.53840581,-1,-0.9988054496833695
2.56305671e+04,9.79999496e-01,-7.27091938e-12,3.70277107,8.26188174e-01,-3.34509847,7.49859632e-01,4.15957166e-05,6.04974957,-1.51768870,-1,-0.9987419014450789
2.69393594e+04,9.79999487e-01,-6.95184793e-12,3.70320541,8.19099577e-01,-3.34509847,7.49859615e-01,4.16473297e-05,6.05662183,-1.49707606,-1,-0.9986751236647337
2.83154613e+04,9.79999477e-01,-6.64763066e-12,3.70363148,8.12067463e-01,-3.34509847,7.49859592e-01,4.17154564e-05,6.06344180,-1.47662114,-1,-0.9986049115841683
2.97626161e+04,9.79999468e-01,-6.36014566e-12,3.70404765,8.05113999e-01,-3.34509847,7.49859562e-01,4.18050456e-05,6.07018701,-1.45638858,-1,-0.9985310742110726
3.12846952e+04,9.79999459e-01,-6.08704767e-12,3.70444720,7.98267147e-01,-3.34509847,7.49859523e-01,4.19222144e-05,6.07683002,-1.43646031,-1,-0.998453414017161
3.28863840e+04,9.79999449e-01,-5.83240599e-12,3.70484659,7.91556555e-01,-3.34509847,7.49859472e-01,4.20746081e-05,6.08334261,-1.41692179,-1,-0.9983716919418799
3.45720207e+04,9.79999440e-01,-5.59494166e-12,3.70524492,7.85018724e-01,-3.34509847,7.49859407e-01,4.22712221e-05,6.08969033,-1.39787895,-1,-0.9982856866396678
3.63456445e+04,9.79999430e-01,-5.37385292e-12,3.70560859,7.78696704e-01,-3.34509847,7.49859323e-01,4.25222028e-05,6.09583132,-1.37945885,-1,-0.9981951920206732
3.82158223e+04,9.79999420e-01,-5.16949412e-12,3.70595309,7.72640399e-01,-3.34509847,7.49859217e-01,4.28415185e-05,6.10171678,-1.36180446,-1,-0.9980997709807305
4.01843522e+04,9.79999410e-01,-4.98188860e-12,3.70627718,7.66882329e-01,-3.34509847,7.49859084e-01,4.32387858e-05,6.10731427,-1.34501430,-1,-0.9979993317763852
4.22584662e+04,9.79999400e-01,-4.81122038e-12,3.70657898,7.61462635e-01,-3.34509847,7.49858921e-01,4.37270455e-05,6.11258392,-1.32920827,-1,-0.9978935054133304
4.44428801e+04,9.79999390e-01,-4.65692670e-12,3.70685805,7.56403198e-01,-3.34509847,7.49858725e-01,4.43157840e-05,6.11750415,-1.31444735,-1,-0.9977820512799304
4.67475528e+04,9.79999380e-01,-4.51834730e-12,3.70711366,7.51726741e-01,-3.34509847,7.49858492e-01,4.50164748e-05,6.12205272,-1.30080078,-1,-0.9976644612487785
4.91749033e+04,9.79999369e-01,-4.39448441e-12,3.70735612,7.47409319e-01,-3.34509847,7.49858221e-01,4.58297399e-05,6.12625302,-1.28819894,-1,-0.9975406118965856
5.17313219e+04,9.79999358e-01,-4.28355510e-12,3.70758829,7.43419361e-01,-3.34509847,7.49857912e-01,4.67555642e-05,6.13013567,-1.27654952,-1,-0.9974101771746352
5.44213012e+04,9.79999346e-01,-4.18287981e-12,3.70778730,7.39706067e-01,-3.34509847,7.49857568e-01,4.77883645e-05,6.13374993,-1.26570560,-1,-0.9972729278595005
5.72575255e+04,9.79999335e-01,-4.09078229e-12,3.70797564,7.36210232e-01,-3.34509847,7.49857189e-01,4.89239363e-05,6.13715325,-1.25549679,-1,-0.9971282167672093
6.02437879e+04,9.79999323e-01,-4.00425542e-12,3.70815302,7.32839132e-01,-3.34509847,7.49856781e-01,5.01473788e-05,6.14043559,-1.24565040,-1,-0.9969758503645337
6.33771467e+04,9.79999310e-01,-3.92094020e-12,3.70832700,7.29508792e-01,-3.34509847,7.49856350e-01,5.14408483e-05,6.14367893,-1.23592041,-1,-0.9968159787441939
6.66861090e+04,9.79999298e-01,-3.83858142e-12,3.70850255,7.26121231e-01,-3.34509847,7.49855899e-01,5.27957917e-05,6.14697844,-1.22602071,-1,-0.9966471474043089
7.01505194e+04,9.79999285e-01,-3.75485193e-12,3.70868359,7.22600609e-01,-3.34509847,7.49855435e-01,5.41866266e-05,6.15040801,-1.21573061,-1,-0.9964703847226236
7.38071462e+04,9.79999271e-01,-3.66687804e-12,3.70887644,7.18814162e-01,-3.34509847,7.49854965e-01,5.55972645e-05,6.15409726,-1.20466272,-1,-0.9962838146906522
7.76350785e+04,9.79999257e-01,-3.57308956e-12,3.70908406,7.14701958e-01,-3.34509847,7.49854496e-01,5.70023490e-05,6.15810448,-1.19263931,-1,-0.9960885042335951
8.16578342e+04,9.79999243e-01,-3.47075860e-12,3.70931283,7.10122046e-01,-3.34509847,7.49854039e-01,5.83737753e-05,6.16256805,-1.17924531,-1,-0.9958832534107431
8.58774836e+04,9.79999229e-01,-3.35792038e-12,3.70957132,7.04953365e-01,-3.34509847,7.49853605e-01,5.96763784e-05,6.16760659,-1.16412872,-1,-0.995667956590333
9.02932541e+04,9.79999215e-01,-3.23282233e-12,3.70985979,6.99076909e-01,-3.34509847,7.49853207e-01,6.08716719e-05,6.17333597,-1.14693504,-1,-0.9954426531923042
9.49126741e+04,9.79999200e-01,-3.09500804e-12,3.71018154,6.92328376e-01,-3.34509847,7.49852861e-01,6.19077118e-05,6.17991727,-1.12718607,-1,-0.9952069590992976
9.97271346e+04,9.79999186e-01,-2.94374914e-12,3.71054260,6.84632881e-01,-3.34509847,7.49852582e-01,6.27439888e-05,6.18742459,-1.10465771,-1,-0.994961313563524
1.04737714e+05,9.79999172e-01,-2.78110542e-12,3.71095327,6.75943733e-01,-3.34509847,7.49852382e-01,6.33453005e-05,6.19590412,-1.07920989,-1,-0.9947056615623809
1.09950795e+05,9.79999158e-01,-2.61253513e-12,3.71138319,6.66348330e-01,-3.34509847,7.49852262e-01,6.37042553e-05,6.20527204,-1.05109783,-1,-0.9944396774349223
1.15380952e+05,9.79999144e-01,-2.44366561e-12,3.71183114,6.56138020e-01,-3.34509847,7.49852207e-01,6.38708587e-05,6.21524407,-1.02117435,-1,-0.994162617559657
1.21063402e+05,9.79999131e-01,-2.28191030e-12,3.71228734,6.45670167e-01,-3.34509847,7.49852189e-01,6.39232793e-05,6.22547117,-9.90480984e-01,-1,-0.9938726850792146
1.27023692e+05,9.79999118e-01,-2.13149976e-12,3.71272932,6.35229649e-01,-3.34509847,7.49852186e-01,6.39336013e-05,6.23567677,-9.59851611e-01,-1,-0.9935685765232474
1.33288278e+05,9.79999105e-01,-1.99286360e-12,3.71314578,6.24937441e-01,-3.34509847,7.49852186e-01,6.39346673e-05,6.24574278,-9.29637290e-01,-1,-0.9932489420420069
1.39871122e+05,9.79999092e-01,-1.86493967e-12,3.71354049,6.14807918e-01,-3.34509847,7.49852186e-01,6.39347222e-05,6.25578374,-8.99650810e-01,-1,-0.992913069260146
1.46790344e+05,9.79999080e-01,-1.74682629e-12,3.71391441,6.04841637e-01,-3.34509847,7.49852186e-01,6.39347235e-05,6.26553636,-8.70373054e-01,-1,-0.9925600336510001
1.54066743e+05,9.79999068e-01,-1.63775219e-12,3.71426953,5.95024880e-01,-3.34509847,7.49852186e-01,6.39347235e-05,6.27514686,-8.41530800e-01,-1,-0.9921887739987799
1.61715162e+05,9.79999056e-01,-1.53673556e-12,3.71461999,5.85343760e-01,-3.34509847,7.49852186e-01,6.39347235e-05,6.28462726,-8.13077441e-01,-1,-0.9917985329773661
1.69751264e+05,9.79999044e-01,-1.44299991e-12,3.71494076,5.75795831e-01,-3.34509847,7.49852186e-01,6.39347235e-05,6.29397994,-7.84997959e-01,-1,-0.9913885114222362
1.78196195e+05,9.79999032e-01,-1.35584956e-12,3.71524218,5.66371878e-01,-3.34509847,7.49852186e-01,6.39347235e-05,6.30321343,-7.57274255e-01,-1,-0.9909576304128134
1.87070692e+05,9.79999020e-01,-1.27459290e-12,3.71552740,5.57062651e-01,-3.34509847,7.49852186e-01,6.39347235e-05,6.31233742,-7.29880732e-01,-1,-0.9905048318967
1.96397624e+05,9.79999009e-01,-1.19924742e-12,3.71580130,5.47860728e-01,-3.34509847,7.49852186e-01,6.39347235e-05,6.32135971,-7.02795306e-01,-1,-0.9900289490416503
2.06199315e+05,9.79998998e-01,-1.12889573e-12,3.71606262,5.38760318e-01,-3.34509847,7.49852186e-01,6.39347235e-05,6.33028535,-6.75999176e-01,-1,-0.9895288428226496
2.16500732e+05,9.79998986e-01,-1.06327774e-12,3.71631946,5.29754146e-01,-3.34509847,7.49852186e-01,6.39347235e-05,6.33912052,-6.49472255e-01,-1,-0.9890032393623673
2.27323558e+05,9.79998975e-01,-1.00195731e-12,3.71655233,5.20840334e-01,-3.34509847,7.49852186e-01,6.39347235e-05,6.34786794,-6.23206015e-01,-1,-0.9884510323411746
2.38697550e+05,9.79998964e-01,-9.44583772e-13,3.71678503,5.12009146e-01,-3.34509847,7.49852186e-01,6.39347235e-05,6.35653744,-5.97176862e-01,-1,-0.9878707034842393
2.50644053e+05,9.79998954e-01,-8.90942830e-13,3.71698514,5.03260254e-01,-3.34509847,7.49852186e-01,6.39347235e-05,6.36512818,-5.71384408e-01,-1,-0.9872611637175186
2.63195429e+05,9.79998943e-01,-8.40646596e-13,3.71717746,4.94587681e-01,-3.34509847,7.49852186e-01,6.39347235e-05,6.37364544,-5.45809801e-01,-1,-0.9866207618527164
2.76387729e+05,9.79998932e-01,-7.93406735e-13,3.71734845,4.85990686e-01,-3.34509847,7.49852186e-01,6.39347235e-05,6.38208976,-5.20446631e-01,-1,-0.9859476584797453
2.90246848e+05,9.79998921e-01,-7.49091328e-13,3.71750088,4.77464335e-01,-3.34509847,7.49852186e-01,6.39347236e-05,6.39046681,-4.95288595e-01,-1,-0.9852405323724471
3.04805086e+05,9.79998911e-01,-7.07437593e-13,3.71764155,4.69003618e-01,-3.34509847,7.49852186e-01,6.39347236e-05,6.39878141,-4.70318178e-01,-1,-0.9844977355059176
3.20095880e+05,9.79998901e-01,-6.68418182e-13,3.71776881,4.60605449e-01,-3.34509847,7.49852186e-01,6.39347236e-05,6.40703654,-4.45523150e-01,-1,-0.9837175618427347
3.36172374e+05,9.79998890e-01,-6.31680779e-13,3.71788125,4.52268700e-01,-3.34509847,7.49852186e-01,6.39347237e-05,6.41523379,-4.20904773e-01,-1,-0.982897299846195
3.53056661e+05,9.79998880e-01,-5.97130092e-13,3.71797996,4.43989431e-01,-3.34509847,7.49852186e-01,6.39347237e-05,6.42337614,-3.96452346e-01,-1,-0.9820358222774683
3.70787566e+05,9.79998870e-01,-5.64537359e-13,3.71806542,4.35765558e-01,-3.34509847,7.49852186e-01,6.39347238e-05,6.43146568,-3.72153715e-01,-1,-0.9811311481902104
3.89430557e+05,9.79998859e-01,-5.33955093e-13,3.71813649,4.27596453e-01,-3.34509847,7.49852186e-01,6.39347239e-05,6.43945378,-3.47956324e-01,-1,-0.9801799372471321
4.09007430e+05,9.79998849e-01,-5.05148587e-13,3.71819813,4.19479145e-01,-3.34509847,7.49852186e-01,6.39347240e-05,6.44724974,-3.23745094e-01,-1,-0.9791810773630689
4.29574799e+05,9.79998839e-01,-4.78016123e-13,3.71825117,4.11411708e-01,-3.34509847,7.49852186e-01,6.39347242e-05,6.45486623,-2.99496748e-01,-1,-0.9781316799534403
4.51184854e+05,9.79998829e-01,-4.52413280e-13,3.71828523,4.03395622e-01,-3.34509847,7.49852186e-01,6.39347244e-05,6.46231437,-2.75210336e-01,-1,-0.9770290821569535
