star_age,star_mass,star_mdot,log_Teff,log_R,log_surf_z,surface_h1,surface_he3,log_center_T,log_center_Rho,phase,x
1.22628596e+02,1.09999929e+01,-4.89563112e-08,3.65678760,2.17912167,-3.34509854,7.49859688e-01,4.14389326e-05,5.70407321,-4.50746781,-1,-1.0
1.27763845e+02,1.09999927e+01,-4.83542845e-08,3.65694695,2.17731949,-3.34509854,7.49859688e-01,4.14389326e-05,5.70583147,-4.50191442,-1,-0.9999539476081252
1.33098994e+02,1.09999924e+01,-4.77375571e-08,3.65710896,2.17546741,-3.34509855,7.49859688e-01,4.14389325e-05,5.70763501,-4.49619860,-1,-0.9999061025333374
1.37128122e+02,1.09999922e+01,-4.71577691e-08,3.66096377,2.17376423,-3.34509856,7.49859689e-01,4.14389325e-05,5.70903163,-4.49183169,-1,-0.9998699697223346
1.40360584e+02,1.09999921e+01,-4.77348043e-08,3.66711970,2.17213078,-3.34509857,7.49859689e-01,4.14389324e-05,5.71020168,-4.48825124,-1,-0.999840981331169
1.46204873e+02,1.09999918e+01,-5.15585715e-08,3.66735074,2.16996348,-3.34509856,7.49859689e-01,4.14389324e-05,5.71235494,-4.48168570,-1,-0.999788570340532
1.52286159e+02,1.09999915e+01,-5.08899475e-08,3.66758764,2.16775583,-3.34509850,7.49859686e-01,4.14389328e-05,5.71455409,-4.47496448,-1,-0.9997340339848511
1.58638393e+02,1.09999912e+01,-5.02097333e-08,3.66783122,2.16547478,-3.34509851,7.49859686e-01,4.14389328e-05,5.71681668,-4.46799233,-1,-0.9996770677950034
1.65244920e+02,1.09999908e+01,-4.94984976e-08,3.66808099,2.16314654,-3.34509852,7.49859687e-01,4.14389327e-05,5.71912086,-4.46086827,-1,-0.9996178211313391
1.72120590e+02,1.09999905e+01,-4.87415434e-08,3.66833851,2.16075845,-3.34509852,7.49859687e-01,4.14389327e-05,5.72147656,-4.45354223,-1,-0.9995561608205652
1.79278038e+02,1.09999901e+01,-4.79515851e-08,3.66860098,2.15831011,-3.34509852,7.49859687e-01,4.14389327e-05,5.72388333,-4.44601312,-1,-0.9994919735532838
1.86728989e+02,1.09999898e+01,-4.71443866e-08,3.66887034,2.15579716,-3.34509852,7.49859687e-01,4.14389327e-05,5.72634419,-4.43826506,-1,-0.9994251541808848
1.94484592e+02,1.09999894e+01,-4.63295359e-08,3.66914639,2.15322317,-3.34509854,7.49859688e-01,4.14389326e-05,5.72885554,-4.43030659,-1,-0.999355602720268
2.02564350e+02,1.09999891e+01,-4.55018501e-08,3.66943149,2.15057099,-3.34509853,7.49859687e-01,4.14389327e-05,5.73143137,-4.42207640,-1,-0.9992831442705084
2.10993963e+02,1.09999887e+01,-4.46658755e-08,3.66972210,2.14786110,-3.34509855,7.49859689e-01,4.14389325e-05,5.73405401,-4.41364678,-1,-0.9992075483566142
2.19762740e+02,1.09999883e+01,-4.38283188e-08,3.67002093,2.14508259,-3.34509855,7.49859689e-01,4.14389325e-05,5.73673311,-4.40497399,-1,-0.9991289108543886
2.28881847e+02,1.09999879e+01,-4.29849032e-08,3.67032583,2.14224029,-3.34509853,7.49859688e-01,4.14389326e-05,5.73946392,-4.39607573,-1,-0.9990471316282766
2.38372505e+02,1.09999875e+01,-4.21471334e-08,3.67063764,2.13933752,-3.34509854,7.49859688e-01,4.14389326e-05,5.74224381,-4.38695645,-1,-0.998962020370504
2.48285363e+02,1.09999871e+01,-4.13074374e-08,3.67095748,2.13636710,-3.34509855,7.49859689e-01,4.14389325e-05,5.74507825,-4.37759378,-1,-0.9988731228659787
2.58590966e+02,1.09999867e+01,-4.04575034e-08,3.67128469,2.13333085,-3.34509855,7.49859689e-01,4.14389325e-05,5.74796688,-4.36798800,-1,-0.9987807032641518
2.69295455e+02,1.09999863e+01,-3.96110926e-08,3.67161756,2.13023107,-3.34509858,7.49859690e-01,4.14389323e-05,5.75090732,-4.35814550,-1,-0.9986847064931583
2.80485277e+02,1.09999858e+01,-3.87658448e-08,3.67195809,2.12706245,-3.34509859,7.49859691e-01,4.14389323e-05,5.75390428,-4.34804253,-1,-0.9985843573050754
2.92110460e+02,1.09999854e+01,-3.79207353e-08,3.67230656,2.12383102,-3.34509856,7.49859689e-01,4.14389325e-05,5.75695344,-4.33769908,-1,-0.9984801038437278
3.04209745e+02,1.09999849e+01,-3.70797846e-08,3.67266180,2.12053709,-3.34509856,7.49859689e-01,4.14389325e-05,5.76005408,-4.32711197,-1,-0.9983715986837589
3.16826815e+02,1.09999845e+01,-3.62487657e-08,3.67302269,2.11717265,-3.34509857,7.49859690e-01,4.14389324e-05,5.76321471,-4.31624454,-1,-0.9982584500804581
3.29931773e+02,1.09999840e+01,-3.54080395e-08,3.67339375,2.11373439,-3.34509856,7.49859689e-01,4.14389324e-05,5.76643838,-4.30508072,-1,-0.9981409261470872
3.43605580e+02,1.09999835e+01,-3.45682112e-08,3.67377250,2.11023285,-3.34509858,7.49859690e-01,4.14389323e-05,5.76971515,-4.29365897,-1,-0.9980183008336146
3.57821086e+02,1.09999831e+01,-3.37440926e-08,3.67415350,2.10668508,-3.34509857,7.49859690e-01,4.14389324e-05,5.77303065,-4.28204052,-1,-0.9978908176184851
3.72627783e+02,1.09999826e+01,-3.29278245e-08,3.67454396,2.10307476,-3.34509859,7.49859691e-01,4.14389323e-05,5.77640039,-4.27015346,-1,-0.9977580326624653
3.88045322e+02,1.09999821e+01,-3.21139631e-08,3.67494272,2.09939692,-3.34509861,7.49859692e-01,4.14389322e-05,5.77982952,-4.25796920,-1,-0.9976197697373816
4.04067490e+02,1.09999816e+01,-3.13038325e-08,3.67534636,2.09565665,-3.34509859,7.49859691e-01,4.14389323e-05,5.78331403,-4.24550668,-1,-0.9974760845607875
4.20787382e+02,1.09999811e+01,-3.05041587e-08,3.67575595,2.09186373,-3.34509860,7.49859691e-01,4.14389322e-05,5.78684699,-4.23279915,-1,-0.9973261422661708
4.38177656e+02,1.09999805e+01,-2.97135310e-08,3.67617300,2.08801673,-3.34509862,7.49859693e-01,4.14389321e-05,5.79043020,-4.21983341,-1,-0.9971701880538125
4.56253901e+02,1.09999800e+01,-2.89387663e-08,3.67659413,2.08411612,-3.34509860,7.49859692e-01,4.14389322e-05,5.79406373,-4.20660287,-1,-0.997008082123143
4.75108929e+02,1.09999795e+01,-2.81731396e-08,3.67702301,2.08015856,-3.34509861,7.49859692e-01,4.14389322e-05,5.79775198,-4.19308652,-1,-0.9968389921455652
4.94727406e+02,1.09999789e+01,-2.74149117e-08,3.67745782,2.07614915,-3.34509862,7.49859692e-01,4.14389321e-05,5.80149184,-4.17929535,-1,-0.9966630556348349
5.15128994e+02,1.09999784e+01,-2.66711773e-08,3.67789746,2.07209024,-3.34509863,7.49859693e-01,4.14389320e-05,5.80528260,-4.16523292,-1,-0.9964800962641317
5.36358120e+02,1.09999778e+01,-2.59400064e-08,3.67834379,2.06798085,-3.34509862,7.49859693e-01,4.14389321e-05,5.80912698,-4.15088438,-1,-0.9962897156166282
5.58492370e+02,1.09999773e+01,-2.52121249e-08,3.67879698,2.06381926,-3.34509868,7.49859696e-01,4.14389318e-05,5.81302923,-4.13622915,-1,-0.9960912179089503
5.81515151e+02,1.09999767e+01,-2.44972346e-08,3.67925519,2.05960925,-3.34509864,7.49859694e-01,4.14389320e-05,5.81698939,-4.12128041,-1,-0.9958847519454381
6.05471266e+02,1.09999761e+01,-2.38008347e-08,3.67971821,2.05536157,-3.34509865,7.49859694e-01,4.14389320e-05,5.82099493,-4.10607103,-1,-0.9956699159373346
6.30410658e+02,1.09999756e+01,-2.31248963e-08,3.68018656,2.05107636,-3.34509869,7.49859697e-01,4.14389317e-05,5.82505068,-4.09058486,-1,-0.995446262000884
6.56360006e+02,1.09999750e+01,-2.24505331e-08,3.68065884,2.04675500,-3.34509867,7.49859695e-01,4.14389318e-05,5.82915696,-4.07482126,-1,-0.9952135508815222
6.83364247e+02,1.09999744e+01,-2.18001104e-08,3.68113830,2.04239877,-3.34509867,7.49859695e-01,4.14389318e-05,5.83331619,-4.05877285,-1,-0.9949713795887936
7.11493466e+02,1.09999738e+01,-2.11586491e-08,3.68162182,2.03800537,-3.34509869,7.49859696e-01,4.14389317e-05,5.83753567,-4.04241564,-1,-0.9947191196075307
7.40765411e+02,1.09999732e+01,-2.05314701e-08,3.68210892,2.03357511,-3.34509868,7.49859696e-01,4.14389317e-05,5.84181674,-4.02573402,-1,-0.9944566117754707
7.71232574e+02,1.09999726e+01,-1.99195840e-08,3.68260455,2.02912590,-3.34509869,7.49859697e-01,4.14389317e-05,5.84614325,-4.00880117,-1,-0.994183385349685
8.02946402e+02,1.09999719e+01,-1.93256246e-08,3.68310052,2.02465318,-3.34509870,7.49859697e-01,4.14389317e-05,5.85052524,-3.99157036,-1,-0.9938989789586987
8.35953254e+02,1.09999713e+01,-1.87443339e-08,3.68360256,2.02015710,-3.34509871,7.49859698e-01,4.14389316e-05,5.85496567,-3.97402993,-1,-0.9936029768597044
8.70308466e+02,1.09999707e+01,-1.81812930e-08,3.68410975,2.01564815,-3.34509874,7.49859700e-01,4.14389314e-05,5.85945857,-3.95621529,-1,-0.9932948828050703
9.06066064e+02,1.09999701e+01,-1.76345364e-08,3.68462006,2.01112632,-3.34509877,7.49859701e-01,4.14389312e-05,5.86400846,-3.93810288,-1,-0.9929742122951111
9.43282969e+02,1.09999694e+01,-1.71027725e-08,3.68513432,2.00659228,-3.34509879,7.49859702e-01,4.14389311e-05,5.86861897,-3.91967262,-1,-0.9926404548680754
9.82016664e+02,1.09999688e+01,-1.65846177e-08,3.68565291,2.00204328,-3.34509880,7.49859703e-01,4.14389311e-05,5.87330237,-3.90088608,-1,-0.992293095022253
1.02233351e+03,1.09999681e+01,-1.60830726e-08,3.68617479,1.99749387,-3.34509881,7.49859704e-01,4.14389310e-05,5.87804667,-3.88179701,-1,-0.9919315376389307
1.06429702e+03,1.09999675e+01,-1.55976918e-08,3.68670072,1.99294317,-3.34509882,7.49859704e-01,4.14389309e-05,5.88286160,-3.86237820,-1,-0.9915552131399703
1.10797622e+03,1.09999668e+01,-1.51283738e-08,3.68722996,1.98840057,-3.34509883,7.49859705e-01,4.14389309e-05,5.88774342,-3.84265265,-1,-0.9911635025072087
1.15343720e+03,1.09999661e+01,-1.46726548e-08,3.68776197,1.98386475,-3.34509888,7.49859708e-01,4.14389306e-05,5.89270377,-3.82258544,-1,-0.9907558130522334
1.20076529e+03,1.09999654e+01,-1.42355236e-08,3.68829682,1.97936339,-3.34509890,7.49859709e-01,4.14389305e-05,5.89770867,-3.80228277,-1,-0.990331379544264
1.25002149e+03,1.09999648e+01,-1.38148503e-08,3.68883558,1.97486948,-3.34509892,7.49859710e-01,4.14389304e-05,5.90280868,-3.78156825,-1,-0.9898896549414913
1.30129766e+03,1.09999641e+01,-1.34093584e-08,3.68937547,1.97041396,-3.34509893,7.49859710e-01,4.14389303e-05,5.90797363,-3.76056871,-1,-0.9894298154527578
1.35467918e+03,1.09999634e+01,-1.30211448e-08,3.68991845,1.96600306,-3.34509893,7.49859711e-01,4.14389303e-05,5.91320895,-3.73928305,-1,-0.9889510953988884
1.41026954e+03,1.09999627e+01,-1.26463402e-08,3.69046274,1.96162925,-3.34509894,7.49859711e-01,4.14389302e-05,5.91853453,-3.71760926,-1,-0.9884525666920658
1.46814727e+03,1.09999619e+01,-1.22900169e-08,3.69101095,1.95730848,-3.34509895,7.49859712e-01,4.14389302e-05,5.92394713,-3.69560150,-1,-0.98793352508322
1.52839926e+03,1.09999612e+01,-1.19478676e-08,3.69156071,1.95304587,-3.34509896,7.49859713e-01,4.14389301e-05,5.92945325,-3.67323428,-1,-0.9873931913516487
1.59112431e+03,1.09999605e+01,-1.16221181e-08,3.69211229,1.94884655,-3.34509897,7.49859713e-01,4.14389300e-05,5.93506517,-3.65047509,-1,-0.9868306794689792
1.65642937e+03,1.09999597e+01,-1.13130978e-08,3.69266760,1.94473186,-3.34509898,7.49859714e-01,4.14389300e-05,5.94076817,-3.62738288,-1,-0.9862450303184652
1.72442224e+03,1.09999590e+01,-1.10195560e-08,3.69322236,1.94071153,-3.34509899,7.49859715e-01,4.14389299e-05,5.94656720,-3.60394195,-1,-0.985635277160647
1.79521777e+03,1.09999582e+01,-1.07428984e-08,3.69377784,1.93679906,-3.34509900,7.49859715e-01,4.14389299e-05,5.95247127,-3.58013828,-1,-0.9850003900323803
1.86893068e+03,1.09999575e+01,-1.04842374e-08,3.69433739,1.93299810,-3.34509902,7.49859716e-01,4.14389298e-05,5.95850462,-3.55589768,-1,-0.9843393401363475
1.94568226e+03,1.09999567e+01,-1.02403598e-08,3.69489856,1.92932727,-3.34509903,7.49859717e-01,4.14389297e-05,5.96465234,-3.53125749,-1,-0.9836510397561379
2.02559979e+03,1.09999559e+01,-1.00139541e-08,3.69546265,1.92580140,-3.34509907,7.49859719e-01,4.14389295e-05,5.97095668,-3.50614287,-1,-0.9829343474576288
2.10882375e+03,1.09999550e+01,-9.80618438e-09,3.69602636,1.92244969,-3.34509913,7.49859722e-01,4.14389291e-05,5.97740480,-3.48059169,-1,-0.9821880034304369
2.19549076e+03,1.09999542e+01,-9.61691823e-09,3.69659165,1.91929481,-3.34509913,7.49859723e-01,4.14389291e-05,5.98400354,-3.45458389,-1,-0.9814107824802671
2.28574849e+03,1.09999533e+01,-9.44786025e-09,3.69715853,1.91637054,-3.34509913,7.49859723e-01,4.14389291e-05,5.99075137,-3.42815914,-1,-0.9806013603175462
2.37973644e+03,1.09999525e+01,-9.29992530e-09,3.69772565,1.91369543,-3.34509913,7.49859723e-01,4.14389291e-05,5.99768073,-3.40121722,-1,-0.9797584859204314
2.47763174e+03,1.09999516e+01,-9.17461865e-09,3.69829414,1.91131470,-3.34509913,7.49859723e-01,4.14389291e-05,6.00479164,-3.37376877,-1,-0.9788805708050587
2.57958100e+03,1.09999506e+01,-9.07447051e-09,3.69886353,1.90927346,-3.34509913,7.49859723e-01,4.14389291e-05,6.01209373,-3.34580551,-1,-0.9779663001878274
2.68569352e+03,1.09999497e+01,-9.00062812e-09,3.69943271,1.90761595,-3.34509913,7.49859723e-01,4.14389291e-05,6.01960782,-3.31728122,-1,-0.9770146938774297
2.79609587e+03,1.09999487e+01,-8.95709849e-09,3.70000490,1.90640093,-3.34509912,7.49859722e-01,4.14389291e-05,6.02734933,-3.28818489,-1,-0.9760246168069509
2.91090603e+03,1.09999477e+01,-8.94807161e-09,3.70057533,1.90569976,-3.34509912,7.49859722e-01,4.14389292e-05,6.03533552,-3.25849654,-1,-0.974995010943724
3.03024065e+03,1.09999466e+01,-8.98106975e-09,3.70114877,1.90560331,-3.34509911,7.49859722e-01,4.14389292e-05,6.04358378,-3.22818586,-1,-0.9739248301823877
3.15416490e+03,1.09999455e+01,-9.06577998e-09,3.70172474,1.90622126,-3.34509910,7.49859721e-01,4.14389292e-05,6.05211384,-3.19722732,-1,-0.9728134900849958
3.28263358e+03,1.09999443e+01,-9.21462223e-09,3.70230472,1.90767537,-3.34509909,7.49859720e-01,4.14389293e-05,6.06094259,-3.16561385,-1,-0.9716613960005611
3.41547758e+03,1.09999431e+01,-9.44474443e-09,3.70289215,1.91011001,-3.34509906,7.49859719e-01,4.14389295e-05,6.07008202,-3.13335822,-1,-0.9704700644904013
3.55228948e+03,1.09999417e+01,-9.77424714e-09,3.70349287,1.91366311,-3.34509903,7.49859717e-01,4.14389297e-05,6.07953358,-3.10051482,-1,-0.9692431492557287
3.69266375e+03,1.09999403e+01,-1.02330311e-08,3.70411354,1.91853820,-3.34509899,7.49859715e-01,4.14389299e-05,6.08930822,-3.06713928,-1,-0.9679842870484278
3.83568554e+03,1.09999388e+01,-1.08473441e-08,3.70476886,1.92482416,-3.34509895,7.49859712e-01,4.14389301e-05,6.09938327,-3.03337067,-1,-0.9667016821504536
3.98044174e+03,1.09999372e+01,-1.16508393e-08,3.70548632,1.93255604,-3.34509891,7.49859710e-01,4.14389304e-05,6.10974808,-2.99935626,-1,-0.9654035232396183
4.12625878e+03,1.09999354e+01,-1.26660016e-08,3.70628078,1.94159222,-3.34509886,7.49859707e-01,4.14389306e-05,6.12038366,-2.96517552,-1,-0.9640958508233237
4.27304893e+03,1.09999334e+01,-1.39063323e-08,3.70721444,1.95156460,-3.34509882,7.49859705e-01,4.14389309e-05,6.13131778,-2.93077506,-1,-0.9627794516553064
4.42190739e+03,1.09999312e+01,-1.53471426e-08,3.70836836,1.96177887,-3.34509878,7.49859703e-01,4.14389311e-05,6.14266426,-2.89586803,-1,-0.9614445040931141
4.57500428e+03,1.09999287e+01,-1.69238762e-08,3.70987143,1.97129410,-3.34509875,7.49859701e-01,4.14389313e-05,6.15458787,-2.85996876,-1,-0.9600715467208242
4.73503901e+03,1.09999259e+01,-1.85176812e-08,3.71188835,1.97896236,-3.34509872,7.49859699e-01,4.14389315e-05,6.16727900,-2.82250833,-1,-0.9586363715035097
4.90336834e+03,1.09999226e+01,-1.99813135e-08,3.71455020,1.98393782,-3.34509871,7.49859698e-01,4.14389316e-05,6.18075315,-2.78347689,-1,-0.957126811155183
5.07819492e+03,1.09999190e+01,-2.12510902e-08,3.71804795,1.98586200,-3.34509870,7.49859697e-01,4.14389316e-05,6.19486727,-2.74320306,-1,-0.955558984128238
5.25721284e+03,1.09999151e+01,-2.22131772e-08,3.72264227,1.98395391,-3.34509869,7.49859697e-01,4.14389316e-05,6.20929685,-2.70280769,-1,-0.9539535695895364
5.43763134e+03,1.09999110e+01,-2.28612769e-08,3.72822554,1.97877301,-3.34509870,7.49859698e-01,4.14389316e-05,6.22384165,-2.66273044,-1,-0.9523355947915344
5.61920898e+03,1.09999068e+01,-2.32708586e-08,3.73454966,1.97117149,-3.34509870,7.49859698e-01,4.14389315e-05,6.23835916,-2.62349430,-1,-0.9507072249436491
5.80038653e+03,1.09999026e+01,-2.34724257e-08,3.74158802,1.96137377,-3.34509869,7.49859698e-01,4.14389316e-05,6.25270144,-2.58556289,-1,-0.9490824430622803
5.98014782e+03,1.09998983e+01,-2.34854531e-08,3.74926820,1.94963355,-3.34509869,7.49859699e-01,4.14389314e-05,6.26676522,-2.54924226,-1,-0.9474703620568605
6.16148256e+03,1.09998941e+01,-2.33618252e-08,3.75727756,1.93669762,-3.34509874,7.49859703e-01,4.14389310e-05,6.28071766,-2.51407857,-1,-0.9458441705115243
6.34679602e+03,1.09998898e+01,-2.31317242e-08,3.76543366,1.92297373,-3.34509873,7.49859705e-01,4.14389307e-05,6.29462329,-2.47974550,-1,-0.9441822982090133
6.53747973e+03,1.09998854e+01,-2.28042772e-08,3.77365127,1.90862082,-3.34509875,7.49859710e-01,4.14389303e-05,6.30838893,-2.44602586,-1,-0.9424722660495091
6.73451204e+03,1.09998810e+01,-2.23844307e-08,3.78187577,1.89372586,-3.34509877,7.49859714e-01,4.14389298e-05,6.32181580,-2.41258499,-1,-0.9407053002895004
6.93863891e+03,1.09998764e+01,-2.18797486e-08,3.79006450,1.87836856,-3.34509894,7.49859741e-01,4.14389271e-05,6.33468671,-2.37892642,-1,-0.9388747112354121
7.15032511e+03,1.09998719e+01,-2.13039872e-08,3.79818862,1.86263791,-3.34509932,7.49859785e-01,4.14389226e-05,6.34691075,-2.34454236,-1,-0.9369763308770519
7.36983748e+03,1.09998673e+01,-2.06754229e-08,3.80623435,1.84663400,-3.34509984,7.49859825e-01,4.14389183e-05,6.35863267,-2.30915160,-1,-0.9350077662203804
7.59714998e+03,1.09998627e+01,-2.00200809e-08,3.81420810,1.83047070,-3.34510040,7.49859873e-01,4.14389134e-05,6.37016935,-2.27274165,-1,-0.9329692507894748
7.83275015e+03,1.09998580e+01,-1.93537444e-08,3.82210261,1.81423939,-3.34510046,7.49859916e-01,4.14389089e-05,6.38178391,-2.23553939,-1,-0.9308564123750939
8.07639765e+03,1.09998534e+01,-1.87040772e-08,3.82994365,1.79806656,-3.34510069,7.49859938e-01,4.14389066e-05,6.39361629,-2.19761269,-1,-0.9286714063219663
8.32840115e+03,1.09998488e+01,-1.80864454e-08,3.83773577,1.78205250,-3.34510042,7.49859946e-01,4.14389057e-05,6.40567194,-2.15909835,-1,-0.9264114645088579
8.58830343e+03,1.09998442e+01,-1.75218945e-08,3.84551283,1.76631734,-3.34509893,7.49859951e-01,4.14389051e-05,6.41794161,-2.12004367,-1,-0.924080687238327
8.85538911e+03,1.09998396e+01,-1.70297090e-08,3.85331541,1.75096746,-3.34509905,7.49859969e-01,4.14389033e-05,6.43040617,-2.08052012,-1,-0.9216854899656126
9.12898798e+03,1.09998350e+01,-1.66220181e-08,3.86117126,1.73605338,-3.34509919,7.49859992e-01,4.14389009e-05,6.44302290,-2.04068387,-1,-0.9192318830659775
9.40849911e+03,1.09998304e+01,-1.62938992e-08,3.86910069,1.72157269,-3.34509929,7.49860006e-01,4.14388994e-05,6.45575733,-2.00066955,-1,-0.9167252556186753
9.69292415e+03,1.09998258e+01,-1.60424441e-08,3.87712797,1.70748056,-3.34509931,7.49859999e-01,4.14389001e-05,6.46859378,-1.96053778,-1,-0.9141745607251877
9.98179849e+03,1.09998212e+01,-1.58552702e-08,3.88526215,1.69368310,-3.34509932,7.49859986e-01,4.14389013e-05,6.48151961,-1.92034307,-1,-0.9115839649608427
1.02750341e+04,1.09998166e+01,-1.57146262e-08,3.89350257,1.68005321,-3.34509942,7.49859992e-01,4.14389007e-05,6.49453676,-1.88008804,-1,-0.9089542577697468
1.05728819e+04,1.09998119e+01,-1.56020250e-08,3.90184282,1.66646111,-3.34509954,7.49860001e-01,4.14388997e-05,6.50765309,-1.83975083,-1,-0.9062831889268047
1.08757897e+04,1.09998072e+01,-1.55005491e-08,3.91027327,1.65279355,-3.34509963,7.49860006e-01,4.14388992e-05,6.52087969,-1.79928979,-1,-0.9035667425173831
1.11843750e+04,1.09998024e+01,-1.53964044e-08,3.91878469,1.63896021,-3.34509970,7.49860010e-01,4.14388988e-05,6.53423104,-1.75865618,-1,-0.9007993808641497
1.14991348e+04,1.09997976e+01,-1.52797158e-08,3.92736532,1.62490343,-3.34509972,7.49860010e-01,4.14388987e-05,6.54771162,-1.71781517,-1,-0.8979766469215431
1.18206983e+04,1.09997927e+01,-1.51438578e-08,3.93600563,1.61058658,-3.34509981,7.49860029e-01,4.14388967e-05,6.56132426,-1.67674064,-1,-0.8950928980878187
1.21495085e+04,1.09997878e+01,-1.49857886e-08,3.94469533,1.59599995,-3.34509993,7.49860034e-01,4.14388961e-05,6.57506374,-1.63542304,-1,-0.8921441615839346
1.24861009e+04,1.09997828e+01,-1.48046842e-08,3.95342588,1.58114681,-3.34510053,7.49860029e-01,4.14388966e-05,6.58892549,-1.59385664,-1,-0.8891256351002369
1.28308276e+04,1.09997777e+01,-1.46021040e-08,3.96218895,1.56604811,-3.34510083,7.49860037e-01,4.14388957e-05,6.60290286,-1.55204620,-1,-0.8860341610396589
1.31841419e+04,1.09997726e+01,-1.43807406e-08,3.97097829,1.55072983,-3.34510117,7.49860069e-01,4.14388922e-05,6.61698956,-1.51000113,-1,-0.8828656742538041
