star_age,star_mass,star_mdot,log_L,log_Teff,log_R,log_surf_z,v_wind_Km_per_s,log_center_T,log_center_Rho,phase,x
1.21968671e+03,7.49999950e-01,-3.73538288e-11,1.77497534,3.67327484,1.06361514,-3.34509847,3.52518756e-05,5.71363075,-2.29560211,-1,-1.0
1.28496261e+03,7.49999947e-01,-3.67754281e-11,1.77070516,3.67346288,1.06110398,-3.34509847,3.51962356e-05,5.71599661,-2.28853659,-1,-0.9999979538699412
1.35377359e+03,7.49999945e-01,-3.61846092e-11,1.76628979,3.67366152,1.05849902,-3.34509847,3.51408271e-05,5.71845170,-2.28120526,-1,-0.9999957969297143
1.42630666e+03,7.49999942e-01,-3.55855005e-11,1.76208041,3.67396089,1.05579558,-3.34509847,3.51593968e-05,5.72099963,-2.27359556,-1,-0.9999935233173276
1.50268675e+03,7.49999940e-01,-3.49972439e-11,1.75734551,3.67417614,1.05299763,-3.34509847,3.51269112e-05,5.72363763,-2.26571517,-1,-0.9999911291167414
1.58308925e+03,7.49999937e-01,-3.43748261e-11,1.75244431,3.67439797,1.05010337,-3.34509847,3.50682045e-05,5.72636713,-2.25756068,-1,-0.9999886088302029
1.66766076e+03,7.49999934e-01,-3.37433912e-11,1.74737707,3.67462640,1.04711289,-3.34509847,3.50074689e-05,5.72918815,-2.24913288,-1,-0.9999859578624073
1.75656236e+03,7.49999931e-01,-3.31014401e-11,1.74214414,3.67486160,1.04402603,-3.34509847,3.49423496e-05,5.73210059,-2.24042953,-1,-0.9999831711641612
1.85041586e+03,7.49999928e-01,-3.24540183e-11,1.73672668,3.67510361,1.04083327,-3.34509847,3.48776674e-05,5.73511387,-2.23142582,-1,-0.9999802292442876
1.94938651e+03,7.49999925e-01,-3.17973859e-11,1.73113807,3.67535539,1.03753541,-3.34509847,3.48107905e-05,5.73822720,-2.22212241,-1,-0.999977126922881
2.05324616e+03,7.49999922e-01,-3.11312176e-11,1.72538305,3.67561375,1.03414117,-3.34509847,3.47376116e-05,5.74143202,-2.21254414,-1,-0.9999738713515022
2.16291552e+03,7.49999918e-01,-3.04590853e-11,1.71944734,3.67588188,1.03063706,-3.34509847,3.46635810e-05,5.74474184,-2.20264954,-1,-0.9999704336696926
2.27828499e+03,7.49999915e-01,-2.97903589e-11,1.71339674,3.67617318,1.02702915,-3.34509847,3.46088820e-05,5.74815049,-2.19246033,-1,-0.99996681731296
2.39974486e+03,7.49999911e-01,-2.91133921e-11,1.70708456,3.67645150,1.02331643,-3.34509847,3.45310722e-05,5.75165926,-2.18197042,-1,-0.9999630100473237
2.52764379e+03,7.49999908e-01,-2.84314419e-11,1.70058408,3.67673580,1.01949760,-3.34509847,3.44479334e-05,5.75526962,-2.17117747,-1,-0.9999590009437316
2.66239767e+03,7.49999904e-01,-2.77454082e-11,1.69392123,3.67703334,1.01557108,-3.34509847,3.43646115e-05,5.75898288,-2.16007609,-1,-0.9999547769657487
2.80389827e+03,7.49999900e-01,-2.70577515e-11,1.68711616,3.67734635,1.01154253,-3.34509847,3.42844607e-05,5.76279368,-2.14868331,-1,-0.9999503415059388
2.95346439e+03,7.49999896e-01,-2.63703140e-11,1.68003309,3.67764710,1.00739950,-3.34509847,3.41874425e-05,5.76671431,-2.13696220,-1,-0.9999456532253649
3.11065347e+03,7.49999892e-01,-2.56827090e-11,1.67276299,3.67795204,1.00315458,-3.34509847,3.40846071e-05,5.77073282,-2.12494720,-1,-0.9999407259964563
3.27595889e+03,7.49999888e-01,-2.49933487e-11,1.66533453,3.67826921,9.98805998e-01,-3.34509847,3.39789344e-05,5.77485070,-2.11263384,-1,-0.9999355443537865
3.45004494e+03,7.49999884e-01,-2.43113001e-11,1.65788185,3.67863474,9.94348589e-01,-3.34509847,3.39080843e-05,5.77907355,-2.10000487,-1,-0.9999300874746054
3.63354151e+03,7.49999879e-01,-2.36312832e-11,1.65006691,3.67896300,9.89784607e-01,-3.34509847,3.37991793e-05,5.78339916,-2.08706714,-1,-0.9999243356144615
3.82663847e+03,7.49999875e-01,-2.29551953e-11,1.64205790,3.67929392,9.85118257e-01,-3.34509847,3.36839628e-05,5.78782359,-2.07383248,-1,-0.9999182828217137
4.02992813e+03,7.49999870e-01,-2.22874663e-11,1.63417713,3.67971057,9.80344566e-01,-3.34509847,3.36303123e-05,5.79235108,-2.06028904,-1,-0.999911910529888
4.24380216e+03,7.49999865e-01,-2.16241701e-11,1.62584722,3.68006506,9.75470644e-01,-3.34509847,3.35205351e-05,5.79697533,-2.04645475,-1,-0.9999052064617466
4.46890835e+03,7.49999861e-01,-2.09662683e-11,1.61733949,3.68042523,9.70496441e-01,-3.34509847,3.34053192e-05,5.80169590,-2.03233175,-1,-0.9998981503117466
4.70580655e+03,7.49999856e-01,-2.03130040e-11,1.60864545,3.68078824,9.65423386e-01,-3.34509847,3.32800759e-05,5.80651162,-2.01792120,-1,-0.9998907245309009
4.95507367e+03,7.49999851e-01,-1.96642713e-11,1.59976441,3.68115326,9.60252842e-01,-3.34509847,3.31426122e-05,5.81142169,-2.00322456,-1,-0.999882911035462
5.21741599e+03,7.49999846e-01,-1.90284111e-11,1.59071562,3.68152169,9.54991586e-01,-3.34509847,3.30060496e-05,5.81630563,-1.98845774,-1,-0.999874687686467
5.49384413e+03,7.49999841e-01,-1.83992544e-11,1.58146598,3.68188861,9.49632932e-01,-3.34509847,3.28554923e-05,5.82134095,-1.97331442,-1,-0.99986602280515
5.78465945e+03,7.49999836e-01,-1.77802317e-11,1.57205109,3.68226119,9.44180322e-01,-3.34509847,3.27020916e-05,5.82652019,-1.95780272,-1,-0.9998569069451186
6.09058366e+03,7.49999830e-01,-1.71698254e-11,1.56259175,3.68266995,9.38633118e-01,-3.34509847,3.25642993e-05,5.83179405,-1.94201241,-1,-0.9998473174837429
6.41224849e+03,7.49999825e-01,-1.65765937e-11,1.55285660,3.68305353,9.32998385e-01,-3.34509847,3.24123720e-05,5.83715365,-1.92596565,-1,-0.9998372346188948
6.75135574e+03,7.49999819e-01,-1.59914618e-11,1.54295535,3.68344093,9.27272967e-01,-3.34509847,3.22489417e-05,5.84260622,-1.90964352,-1,-0.9998266050061679
7.10774516e+03,7.49999814e-01,-1.54149003e-11,1.53290270,3.68383205,9.21464408e-01,-3.34509847,3.20742116e-05,5.84813899,-1.89307802,-1,-0.9998154336687385
7.48287020e+03,7.49999808e-01,-1.48554826e-11,1.52265662,3.68421593,9.15573595e-01,-3.34509847,3.18971753e-05,5.85375324,-1.87626791,-1,-0.9998036750469473
7.87789372e+03,7.49999802e-01,-1.43118376e-11,1.51254661,3.68467742,9.09595619e-01,-3.34509847,3.17757302e-05,5.85945294,-1.85919950,-1,-0.9997912926899332
8.29314886e+03,7.49999797e-01,-1.37786820e-11,1.50204026,3.68507814,9.03541000e-01,-3.34509847,3.15993047e-05,5.86522851,-1.84190053,-1,-0.9997782761551317
8.73030823e+03,7.49999791e-01,-1.32576462e-11,1.49138114,3.68547877,8.97410170e-01,-3.34509847,3.14140509e-05,5.87107910,-1.82437588,-1,-0.9997645730131228
9.19019138e+03,7.49999785e-01,-1.27486389e-11,1.48062740,3.68589220,8.91206459e-01,-3.34509847,3.12286115e-05,5.87700245,-1.80663155,-1,-0.9997501575743962
9.67394812e+03,7.49999779e-01,-1.22540178e-11,1.46969601,3.68629716,8.84930830e-01,-3.34509847,3.10331953e-05,5.88299777,-1.78866916,-1,-0.999734993797154
1.01832662e+04,7.49999773e-01,-1.17728017e-11,1.45861789,3.68670055,8.78585004e-01,-3.34509847,3.08303010e-05,5.88906372,-1.77050055,-1,-0.9997190287773994
1.07186769e+04,7.49999767e-01,-1.13020565e-11,1.44744917,3.68711330,8.72175138e-01,-3.34509847,3.06201291e-05,5.89519384,-1.75214067,-1,-0.999702245861697
1.12822572e+04,7.49999761e-01,-1.08497755e-11,1.43609883,3.68751445,8.65697660e-01,-3.34509847,3.04094340e-05,5.90139070,-1.73357770,-1,-0.9996845799452959
1.18753856e+04,7.49999754e-01,-1.04101262e-11,1.42461538,3.68791328,8.59158276e-01,-3.34509847,3.01889905e-05,5.90764982,-1.71482235,-1,-0.9996659878179105
1.24991034e+04,7.49999748e-01,-9.98286170e-12,1.41304225,3.68831922,8.52559837e-01,-3.34509847,2.99659656e-05,5.91396781,-1.69589144,-1,-0.9996464368390834
1.31552467e+04,7.49999742e-01,-9.57069769e-12,1.40146403,3.68875404,8.45901089e-01,-3.34509847,2.97619348e-05,5.92034645,-1.67677513,-1,-0.9996258694546576
1.38458913e+04,7.49999735e-01,-9.17258432e-12,1.38963757,3.68915410,8.39187733e-01,-3.34509847,2.95325652e-05,5.92678013,-1.65749480,-1,-0.9996042205968703
1.45724957e+04,7.49999729e-01,-8.78620078e-12,1.37770104,3.68955206,8.32423547e-01,-3.34509847,2.92926941e-05,5.93326547,-1.63805634,-1,-0.9995814445477659
1.53367259e+04,7.49999722e-01,-8.41256236e-12,1.36565488,3.68994709,8.25610408e-01,-3.34509847,2.90459837e-05,5.93980114,-1.61846697,-1,-0.9995574890851204
1.61406145e+04,7.49999716e-01,-8.05208600e-12,1.35350372,3.69033906,8.18750890e-01,-3.34509847,2.87944362e-05,5.94638513,-1.59873375,-1,-0.9995322904953128
1.69865226e+04,7.49999709e-01,-7.70501288e-12,1.34137834,3.69076140,8.11843524e-01,-3.34509847,2.85621203e-05,5.95301861,-1.57885039,-1,-0.9995057747676027
1.78762385e+04,7.49999702e-01,-7.37206537e-12,1.32906413,3.69115592,8.04897378e-01,-3.34509847,2.83137790e-05,5.95969226,-1.55884673,-1,-0.9994778858461657
1.88121466e+04,7.49999696e-01,-7.05021045e-12,1.31663828,3.69154229,7.97911701e-01,-3.34509847,2.80539331e-05,5.96640626,-1.53871715,-1,-0.9994485489899029
1.97967886e+04,7.49999689e-01,-6.73978895e-12,1.30412405,3.69192393,7.90891313e-01,-3.34509847,2.77861261e-05,5.97315642,-1.51848174,-1,-0.9994176845270092
2.08328756e+04,7.49999682e-01,-6.44191535e-12,1.29153026,3.69230075,7.83840779e-01,-3.34509847,2.75156971e-05,5.97993836,-1.49814921,-1,-0.9993852074756888
2.19233911e+04,7.49999675e-01,-6.15738838e-12,1.27903670,3.69271913,7.76757241e-01,-3.34509847,2.72762916e-05,5.98675566,-1.47770508,-1,-0.9993510243155304
2.30701920e+04,7.49999668e-01,-5.88318714e-12,1.26633018,3.69309417,7.69653903e-01,-3.34509847,2.70049356e-05,5.99359596,-1.45719559,-1,-0.9993150768403825
2.42768928e+04,7.49999662e-01,-5.61981405e-12,1.25362671,3.69347883,7.62532840e-01,-3.34509847,2.67368702e-05,6.00045680,-1.43662247,-1,-0.999277251750588
2.55462292e+04,7.49999655e-01,-5.36821369e-12,1.24081890,3.69384179,7.55403023e-01,-3.34509847,2.64592686e-05,6.00732854,-1.41601904,-1,-0.9992374632932427
2.68817831e+04,7.49999648e-01,-5.12659971e-12,1.22797176,3.69419516,7.48272708e-01,-3.34509847,2.61722971e-05,6.01420292,-1.39540548,-1,-0.9991955991905647
2.82880557e+04,7.49999641e-01,-4.89626062e-12,1.21530120,3.69459053,7.41146691e-01,-3.34509847,2.59135072e-05,6.02107524,-1.37479433,-1,-0.9991515183485112
2.97675018e+04,7.49999634e-01,-4.67859826e-12,1.20250851,3.69494456,7.34042282e-01,-3.34509847,2.56433196e-05,6.02792992,-1.35423303,-1,-0.9991051438192339
3.13245303e+04,7.49999627e-01,-4.46995066e-12,1.18975391,3.69528869,7.26976726e-01,-3.34509847,2.53634715e-05,6.03475042,-1.33377586,-1,-0.999056337401914
3.29635180e+04,7.49999620e-01,-4.27167508e-12,1.17707960,3.69562390,7.19969146e-01,-3.34509847,2.50818730e-05,6.04151820,-1.31347381,-1,-0.9990049619019354
3.46890804e+04,7.49999612e-01,-4.08373161e-12,1.16450947,3.69594554,7.13040814e-01,-3.34509847,2.47977717e-05,6.04821272,-1.29339183,-1,-0.9989508726424222
3.65060264e+04,7.49999605e-01,-3.90692550e-12,1.15210960,3.69625528,7.06221403e-01,-3.34509847,2.45178466e-05,6.05480470,-1.27361755,-1,-0.9988939188842066
3.84202339e+04,7.49999598e-01,-3.74075655e-12,1.13994472,3.69655212,6.99545264e-01,-3.34509847,2.42400297e-05,6.06126066,-1.25425189,-1,-0.998833916379383
4.04379713e+04,7.49999591e-01,-3.58564595e-12,1.12809000,3.69683485,6.93052451e-01,-3.34509847,2.39671843e-05,6.06754165,-1.23540996,-1,-0.998770668639482
4.25651420e+04,7.49999583e-01,-3.44192494e-12,1.11670940,3.69712452,6.86782814e-01,-3.34509847,2.37145681e-05,6.07360912,-1.21720755,-1,-0.9987039906172782
4.48067408e+04,7.49999576e-01,-3.30968001e-12,1.10572291,3.69737768,6.80783246e-01,-3.34509847,2.34622096e-05,6.07941757,-1.19978163,-1,-0.9986337257464062
4.71701953e+04,7.49999568e-01,-3.18858453e-12,1.09529355,3.69761326,6.75097400e-01,-3.34509847,2.32200208e-05,6.08492425,-1.18326350,-1,-0.998559641202261
4.96657945e+04,7.49999560e-01,-3.07895932e-12,1.08550078,3.69782825,6.69771036e-01,-3.34509847,2.29903244e-05,6.09008423,-1.16778442,-1,-0.9984814144671573
5.22973056e+04,7.49999552e-01,-2.97987188e-12,1.07636882,3.69802039,6.64820788e-01,-3.34509847,2.27708623e-05,6.09488084,-1.15339540,-1,-0.9983989274549231
5.50720972e+04,7.49999544e-01,-2.89134686e-12,1.06793976,3.69819691,6.60253215e-01,-3.34509847,2.25703472e-05,6.09930741,-1.14011347,-1,-0.9983119491903599
5.80000482e+04,7.49999536e-01,-2.81226707e-12,1.06019621,3.69835643,6.56062392e-01,-3.34509847,2.23850336e-05,6.10336964,-1.12792428,-1,-0.9982201700107249
6.10907058e+04,7.49999527e-01,-2.74208585e-12,1.05307882,3.69850030,6.52215961e-01,-3.34509847,2.22189784e-05,6.10709901,-1.11673306,-1,-0.9981232906507014
6.43513556e+04,7.49999519e-01,-2.67898700e-12,1.04660171,3.69866426,6.48649495e-01,-3.34509847,2.20835576e-05,6.11055751,-1.10635336,-1,-0.9980210827367981
6.77831771e+04,7.49999510e-01,-2.62105345e-12,1.04037409,3.69878903,6.45286148e-01,-3.34509847,2.19448262e-05,6.11381991,-1.09656237,-1,-0.9979135092965583
7.14010788e+04,7.49999500e-01,-2.56670937e-12,1.03437621,3.69890603,6.42053188e-01,-3.34509847,2.18122462e-05,6.11695659,-1.08715083,-1,-0.9978001030100372
7.52147309e+04,7.49999491e-01,-2.51439902e-12,1.02843796,3.69902013,6.38855879e-01,-3.34509847,2.16837690e-05,6.12005929,-1.07784225,-1,-0.9976805607563755
7.92281158e+04,7.49999481e-01,-2.46258279e-12,1.02239584,3.69913436,6.35606354e-01,-3.34509847,2.15555447e-05,6.12321332,-1.06837844,-1,-0.9975547577037693
8.34529567e+04,7.49999471e-01,-2.40966023e-12,1.01607016,3.69925193,6.32208368e-01,-3.34509847,2.14224040e-05,6.12651214,-1.05848166,-1,-0.9974223263782825
8.79011443e+04,7.49999460e-01,-2.35409782e-12,1.00929491,3.69937987,6.28564867e-01,-3.34509847,2.12805459e-05,6.13004981,-1.04786986,-1,-0.9972828940555455
9.25778075e+04,7.49999449e-01,-2.29437984e-12,1.00185529,3.69951491,6.24574969e-01,-3.34509847,2.11206727e-05,6.13392440,-1.03624477,-1,-0.9971362999657111
9.74851760e+04,7.49999438e-01,-2.22935923e-12,9.93574629e-01,3.69965940,6.20145664e-01,-3.34509847,2.09381307e-05,6.13822642,-1.02333631,-1,-0.9969824742168866
1.02646619e+05,7.49999427e-01,-2.15718326e-12,9.84154024e-01,3.69981928,6.15115601e-01,-3.34509847,2.07249368e-05,6.14311277,-1.00867180,-1,-0.9968206842811013
1.08057399e+05,7.49999416e-01,-2.07676274e-12,9.73364978e-01,3.69999674,6.09366153e-01,-3.34509847,2.04736362e-05,6.14869936,-9.91905443e-01,-1,-0.9966510786594275
1.13724219e+05,7.49999404e-01,-1.98788889e-12,9.61111219e-01,3.70024761,6.02737544e-01,-3.34509847,2.02083971e-05,6.15514225,-9.72568530e-01,-1,-0.9964734472404799
1.19633684e+05,7.49999393e-01,-1.89000559e-12,9.46803262e-01,3.70047347,5.95131845e-01,-3.34509847,1.98764694e-05,6.16253694,-9.50377478e-01,-1,-0.9962882099022249
1.25787107e+05,7.49999382e-01,-1.78376566e-12,9.30482675e-01,3.70071948,5.86479530e-01,-3.34509847,1.94933015e-05,6.17095217,-9.25123638e-01,-1,-0.9960953254875311
1.32192707e+05,7.49999371e-01,-1.67238254e-12,9.12328294e-01,3.70099879,5.76843710e-01,-3.34509847,1.90757595e-05,6.18032767,-8.96982088e-01,-1,-0.9958945363646703
1.38861854e+05,7.49999360e-01,-1.56012771e-12,8.92731421e-01,3.70126319,5.66516481e-01,-3.34509847,1.86182390e-05,6.19038059,-8.66803195e-01,-1,-0.9956854861310684
1.45839863e+05,7.49999350e-01,-1.45240222e-12,8.72446967e-01,3.70151162,5.55877388e-01,-3.34509847,1.81488599e-05,6.20074284,-8.35695375e-01,-1,-0.9954667543484992
1.53164576e+05,7.49999339e-01,-1.35248966e-12,8.52142036e-01,3.70174720,5.45253773e-01,-3.34509847,1.76911373e-05,6.21109638,-8.04615398e-01,-1,-0.9952371548264439
1.60873479e+05,7.49999329e-01,-1.26073021e-12,8.32085765e-01,3.70196297,5.34794095e-01,-3.34509847,1.72442268e-05,6.22129480,-7.73995587e-01,-1,-0.9949955125335144
1.68984887e+05,7.49999320e-01,-1.17664476e-12,8.12383186e-01,3.70217780,5.24513153e-01,-3.34509847,1.68178451e-05,6.23150888,-7.43552371e-01,-1,-0.99474125337005
1.77522992e+05,7.49999310e-01,-1.09915558e-12,7.92867376e-01,3.70234678,5.14417276e-01,-3.34509847,1.63891919e-05,6.24135764,-7.13976137e-01,-1,-0.9944736190166962
1.86511696e+05,7.49999301e-01,-1.02797806e-12,7.73761391e-01,3.70254178,5.04474286e-01,-3.34509847,1.59899164e-05,6.25106200,-6.84840219e-01,-1,-0.9941918602444006
1.95963398e+05,7.49999291e-01,-9.62042951e-13,7.54719577e-01,3.70267158,4.94693779e-01,-3.34509847,1.55800011e-05,6.26061176,-6.56174122e-01,-1,-0.9938955883956867
2.05911599e+05,7.49999282e-01,-9.01036174e-13,7.35910322e-01,3.70278688,4.85058547e-01,-3.34509847,1.51791706e-05,6.27002380,-6.27909129e-01,-1,-0.9935837533524692
2.16376350e+05,7.49999273e-01,-8.44588925e-13,7.17284776e-01,3.70287940,4.75560750e-01,-3.34509847,1.47862959e-05,6.27930491,-6.00031516e-01,-1,-0.9932557265986527
2.27384945e+05,7.49999264e-01,-7.92174323e-13,6.98832332e-01,3.70295067,4.66191969e-01,-3.34509847,1.43992708e-05,6.28846217,-5.72524858e-01,-1,-0.9929106525799846
2.38966716e+05,7.49999255e-01,-7.43545433e-13,6.80558191e-01,3.70300649,4.56943271e-01,-3.34509847,1.40216406e-05,6.29750403,-5.45367861e-01,-1,-0.9925476118593236
2.51155257e+05,7.49999247e-01,-6.98425679e-13,6.62520402e-01,3.70306697,4.47803414e-01,-3.34509847,1.36598007e-05,6.30644205,-5.18522375e-01,-1,-0.9921655514034188
2.63972436e+05,7.49999238e-01,-6.56360831e-13,6.44544927e-01,3.70308807,4.38773475e-01,-3.34509847,1.32975684e-05,6.31527615,-4.91988032e-01,-1,-0.9917637857407235
2.77452640e+05,7.49999229e-01,-6.17096206e-13,6.26667239e-01,3.70308205,4.29846665e-01,-3.34509847,1.29384686e-05,6.32401374,-4.65740133e-01,-1,-0.9913412369807095
2.91633519e+05,7.49999221e-01,-5.80482584e-13,6.08935733e-01,3.70306478,4.21015460e-01,-3.34509847,1.25882637e-05,6.33266127,-4.39764151e-01,-1,-0.9908967249512657
3.06548997e+05,7.49999213e-01,-5.46291232e-13,5.91321757e-01,3.70303144,4.12275146e-01,-3.34509847,1.22450207e-05,6.34122186,-4.14047324e-01,-1,-0.9904291862750025
3.22235620e+05,7.49999204e-01,-5.14354612e-13,5.73802487e-01,3.70297869,4.03621022e-01,-3.34509847,1.19080237e-05,6.34969839,-3.88580232e-01,-1,-0.9899374753856528
3.38736194e+05,7.49999196e-01,-4.84478879e-13,5.56381875e-01,3.70290938,3.95049321e-01,-3.34509847,1.15775481e-05,6.35809595,-3.63345515e-01,-1,-0.9894202504917847
3.56098772e+05,7.49999188e-01,-4.56557279e-13,5.39070719e-01,3.70282865,3.86555212e-01,-3.34509847,1.12556350e-05,6.36641952,-3.38331543e-01,-1,-0.9888760053301725
3.74355737e+05,7.49999180e-01,-4.30378154e-13,5.21827249e-01,3.70272781,3.78135161e-01,-3.34509847,1.09388470e-05,6.37467340,-3.13529485e-01,-1,-0.9883037248274169
3.93552187e+05,7.49999172e-01,-4.05794834e-13,5.04661731e-01,3.70261141,3.69785189e-01,-3.34509847,1.06276132e-05,6.38286001,-2.88925506e-01,-1,-0.9877019953473459
4.13751089e+05,7.49999164e-01,-3.82813817e-13,4.87609595e-01,3.70249044,3.61501063e-01,-3.34509847,1.03271273e-05,6.39098396,-2.64510696e-01,-1,-0.9870688431343865
4.34993770e+05,7.49999156e-01,-3.61215930e-13,4.70568496e-01,3.70233926,3.53282885e-01,-3.34509847,1.00290165e-05,6.39904587,-2.40281872e-01,-1,-0.9864029727576531
4.57324134e+05,7.49999149e-01,-3.40900508e-13,4.53581170e-01,3.70217103,3.45125679e-01,-3.34509847,9.73621747e-06,6.40705060,-2.16226763e-01,-1,-0.985703008007946
4.80819072e+05,7.49999141e-01,-3.21815406e-13,4.36663388e-01,3.70199073,3.37027395e-01,-3.34509847,9.45024938e-06,6.41499910,-1.92340281e-01,-1,-0.984966538669759
5.05526883e+05,7.49999133e-01,-3.03886202e-13,4.19784419e-01,3.70179106,3.28987245e-01,-3.34509847,9.17007969e-06,6.42289169,-1.68617321e-01,-1,-0.9841920507687815
5.31500718e+05,7.49999126e-01,-2.87011765e-13,4.02957055e-01,3.70157672,3.21002244e-01,-3.34509847,8.89594320e-06,6.43073121,-1.45050854e-01,-1,-0.9833778782405276
5.58836904e+05,7.49999118e-01,-2.71147458e-13,3.86174017e-01,3.70134664,3.13070875e-01,-3.34509847,8.62792643e-06,6.43851932,-1.21640438e-01,-1,-0.9825210016311074
5.87561278e+05,7.49999111e-01,-2.56195893e-13,3.69423051e-01,3.70109980,3.05189070e-01,-3.34509847,8.36545964e-06,6.44626002,-9.83694115e-02,-1,-0.9816206110572053
6.17791087e+05,7.49999103e-01,-2.42071430e-13,3.52686558e-01,3.70083167,2.97357096e-01,-3.34509847,8.10610531e-06,6.45395335,-7.52382660e-02,-1,-0.980673031309272
6.49566062e+05,7.49999096e-01,-2.28855224e-13,3.36020048e-01,3.70055860,2.89569979e-01,-3.34509847,7.85773939e-06,6.46160436,-5.22310101e-02,-1,-0.979677016984435
6.82999625e+05,7.49999088e-01,-2.16373664e-13,3.19372774e-01,3.70026701,2.81829524e-01,-3.34509847,7.61350026e-06,6.46921103,-2.93564029e-02,-1,-0.9786290127711086
7.18136600e+05,7.49999081e-01,-2.04588557e-13,3.02750253e-01,3.69995985,2.74132584e-01,-3.34509847,7.37455073e-06,6.47677596,-6.60400567e-03,-1,-0.97752761362189
