star_age,star_mass,star_mdot,log_L,log_Teff,log_R,log_surf_z,v_wind_Km_per_s,log_center_T,log_center_Rho,phase,x
3.78740688e+02,2.79999981,-4.23527182e-10,2.84665026,3.66362462,1.61875304,-3.34509851,4.39175767e-05,5.71495739,-3.41590668,-1,-1.0
3.97008188e+02,2.79999981,-4.18082031e-10,2.84303726,3.66378997,1.61661583,-3.34509851,4.38472869e-05,5.71702832,-3.40970679,-1,-0.9999897024295512
4.06561662e+02,2.79999980,-4.13343664e-10,2.87208223,3.67188998,1.61493830,-3.34509851,6.46314059e-05,5.71819863,-3.40621246,-1,-0.9999843170417563
4.19469860e+02,2.79999980,-4.50676597e-10,2.89081258,3.67757232,1.61293881,-3.34509851,8.72057207e-05,5.71982626,-3.40134655,-1,-0.9999770405628581
4.39597463e+02,2.79999979,-4.52443408e-10,2.88683329,3.67787083,1.61035214,-3.34509847,8.90514955e-05,5.72233432,-3.39383440,-1,-0.9999656944339484
4.60742993e+02,2.79999978,-4.46421360e-10,2.88259788,3.67814640,1.60768329,-3.34509847,8.93677665e-05,5.72492293,-3.38608327,-1,-0.9999537744895198
4.82835752e+02,2.79999977,-4.40215772e-10,2.87823676,3.67842772,1.60494010,-3.34509847,8.96709518e-05,5.72758376,-3.37811355,-1,-0.999941320582734
5.05938936e+02,2.79999976,-4.33451327e-10,2.87375034,3.67871676,1.60211880,-3.34509847,8.98859613e-05,5.73032059,-3.36991715,-1,-0.9999282970893807
5.30251605e+02,2.79999975,-4.26225225e-10,2.86911517,3.67901451,1.59920571,-3.34509847,9.00302603e-05,5.73314670,-3.36145285,-1,-0.999914591797369
5.55705405e+02,2.79999974,-4.18780422e-10,2.86434413,3.67932017,1.59620887,-3.34509847,9.01490752e-05,5.73605425,-3.35274393,-1,-0.9999002432385247
5.82339669e+02,2.79999973,-4.11196409e-10,2.85951193,3.67965292,1.59312728,-3.34509847,9.02983175e-05,5.73904386,-3.34378811,-1,-0.9998852292404466
6.10189287e+02,2.79999972,-4.03535003e-10,2.85453230,3.67999094,1.58996143,-3.34509847,9.04423436e-05,5.74211573,-3.33458849,-1,-0.9998695301352968
6.39403423e+02,2.79999970,-3.95750914e-10,2.84935338,3.68032429,1.58670526,-3.34509847,9.05454708e-05,5.74527561,-3.32512400,-1,-0.9998530618378527
6.70067201e+02,2.79999969,-3.88005260e-10,2.84401715,3.68066429,1.58335716,-3.34509847,9.06672826e-05,5.74852541,-3.31539107,-1,-0.9998357763628737
7.02092364e+02,2.79999968,-3.80151221e-10,2.83854258,3.68101120,1.57992604,-3.34509847,9.07742162e-05,5.75185576,-3.30541465,-1,-0.9998177234617035
7.35687995e+02,2.79999967,-3.72238946e-10,2.83290581,3.68136352,1.57640302,-3.34509847,9.08708459e-05,5.75527626,-3.29516736,-1,-0.999798785272187
7.70902041e+02,2.79999965,-3.64248269e-10,2.82721164,3.68174753,1.57278791,-3.34509847,9.10080809e-05,5.75878653,-3.28465314,-1,-0.999778934766126
8.07707165e+02,2.79999964,-3.56300838e-10,2.82135918,3.68213513,1.56908648,-3.34509847,9.11528651e-05,5.76238098,-3.27388604,-1,-0.9997581873536576
8.46361090e+02,2.79999963,-3.48336142e-10,2.81531045,3.68252124,1.56528989,-3.34509847,9.12749290e-05,5.76606864,-3.26283982,-1,-0.9997363977537777
8.86762223e+02,2.79999961,-3.40406939e-10,2.80911822,3.68291418,1.56140791,-3.34509847,9.14055348e-05,5.76983917,-3.25154575,-1,-0.999713623235465
9.29125975e+02,2.79999960,-3.32409190e-10,2.80276198,3.68331197,1.55743421,-3.34509847,9.15093624e-05,5.77369927,-3.23998247,-1,-0.9996897423694081
9.73496094e+02,2.79999959,-3.24413770e-10,2.79626014,3.68371810,1.55337102,-3.34509847,9.16101785e-05,5.77764661,-3.22815664,-1,-0.9996647304944268
1.01987397e+03,2.79999957,-3.16464435e-10,2.78988186,3.68419928,1.54921952,-3.34509847,9.18697670e-05,5.78167897,-3.21607406,-1,-0.9996385868269642
1.06860710e+03,2.79999956,-3.08671377e-10,2.78311684,3.68463133,1.54497292,-3.34509847,9.20371835e-05,5.78580482,-3.20371088,-1,-0.9996111154795241
1.11957142e+03,2.79999954,-3.00795745e-10,2.77621035,3.68507078,1.54064077,-3.34509847,9.21676397e-05,5.79001420,-3.19109689,-1,-0.9995823863882104
1.17289046e+03,2.79999952,-2.92982472e-10,2.76914801,3.68551406,1.53622303,-3.34509847,9.22942734e-05,5.79430743,-3.17823068,-1,-0.9995523299179403
1.22872505e+03,2.79999951,-2.85200442e-10,2.76196859,3.68597166,1.53171813,-3.34509847,9.24287138e-05,5.79868602,-3.16510895,-1,-0.9995208554072518
1.28729240e+03,2.79999949,-2.77448588e-10,2.75470580,3.68645405,1.52712196,-3.34509847,9.25873612e-05,5.80315444,-3.15171686,-1,-0.9994878404127193
1.34859264e+03,2.79999948,-2.69835554e-10,2.74722370,3.68692344,1.52244212,-3.34509847,9.27221365e-05,5.80770520,-3.13807813,-1,-0.9994532848610607
1.41277545e+03,2.79999946,-2.62288454e-10,2.73971196,3.68742831,1.51767651,-3.34509847,9.29160508e-05,5.81234030,-3.12418629,-1,-0.999417104376179
1.47996484e+03,2.79999944,-2.54803266e-10,2.73196745,3.68791627,1.51282833,-3.34509847,9.30455872e-05,5.81705696,-3.11005078,-1,-0.9993792290524111
1.55031656e+03,2.79999942,-2.47415511e-10,2.72410609,3.68841617,1.50789785,-3.34509847,9.31869057e-05,5.82185424,-3.09567372,-1,-0.9993395710919407
1.62397843e+03,2.79999941,-2.40093565e-10,2.71608201,3.68891594,1.50288627,-3.34509847,9.32964043e-05,5.82673073,-3.08106046,-1,-0.9992980471671721
1.70111597e+03,2.79999939,-2.32908082e-10,2.70799708,3.68944071,1.49779428,-3.34509847,9.34578795e-05,5.83168584,-3.06620910,-1,-0.9992545639728437
1.78187964e+03,2.79999937,-2.25873675e-10,2.69980238,3.68997801,1.49262232,-3.34509847,9.36476012e-05,5.83671890,-3.05112198,-1,-0.9992090366931654
1.86642363e+03,2.79999935,-2.18896518e-10,2.69140118,3.69050176,1.48737423,-3.34509847,9.37654822e-05,5.84182720,-3.03580684,-1,-0.9991613784097088
1.95494964e+03,2.79999933,-2.12038493e-10,2.68307263,3.69108370,1.48204606,-3.34509847,9.40005310e-05,5.84701447,-3.02025640,-1,-0.9991114754221888
2.04756659e+03,2.79999931,-2.05319804e-10,2.67443947,3.69162587,1.47664514,-3.34509847,9.41343244e-05,5.85227361,-3.00449072,-1,-0.999059266331324
2.14465463e+03,2.79999929,-1.98746967e-10,2.66568701,3.69217546,1.47116973,-3.34509847,9.42746807e-05,5.85760649,-2.98850604,-1,-0.999004536842799
2.24628877e+03,2.79999927,-1.92197427e-10,2.65682692,3.69273410,1.46562242,-3.34509847,9.43668118e-05,5.86301022,-2.97230755,-1,-0.9989472446727348
2.35261536e+03,2.79999925,-1.85754480e-10,2.64782806,3.69329311,1.46000496,-3.34509847,9.44280793e-05,5.86848277,-2.95590081,-1,-0.9988873073221887
2.46389882e+03,2.79999923,-1.79599778e-10,2.63870799,3.69385544,1.45432027,-3.34509847,9.45559703e-05,5.87402171,-2.93929431,-1,-0.9988245757349912
2.58055150e+03,2.79999921,-1.73529105e-10,2.62953743,3.69443943,1.44856701,-3.34509847,9.46859448e-05,5.87962775,-2.92248419,-1,-0.9987588174653683
2.70253685e+03,2.79999919,-1.67580875e-10,2.62019499,3.69500998,1.44275468,-3.34509847,9.47584872e-05,5.88522546,-2.90561684,-1,-0.9986900531169167
2.83028539e+03,2.79999917,-1.61783997e-10,2.61079030,3.69559614,1.43688002,-3.34509847,9.48539901e-05,5.89088920,-2.88856241,-1,-0.9986180400012536
2.96404876e+03,2.79999915,-1.56102605e-10,2.60125923,3.69618284,1.43094109,-3.34509847,9.49164082e-05,5.89667891,-2.87119620,-1,-0.998542636266422
3.10394700e+03,2.79999913,-1.50615664e-10,2.59161737,3.69677208,1.42494167,-3.34509847,9.49998104e-05,5.90252785,-2.85365810,-1,-0.9984637742446865
3.25059833e+03,2.79999911,-1.45258213e-10,2.58195868,3.69738669,1.41888312,-3.34509847,9.51143302e-05,5.90843564,-2.83594267,-1,-0.9983811054393175
3.40385033e+03,2.79999909,-1.40024103e-10,2.57208250,3.69797421,1.41276999,-3.34509847,9.51398934e-05,5.91439786,-2.81806593,-1,-0.998294715770977
3.56454008e+03,2.79999906,-1.34923433e-10,2.56215919,3.69857827,1.40660021,-3.34509847,9.51758627e-05,5.92041758,-2.80001345,-1,-0.9982041333693885
3.73249635e+03,2.79999904,-1.29965675e-10,2.55211107,3.69917749,1.40037771,-3.34509847,9.51880069e-05,5.92649036,-2.78180027,-1,-0.9981094547585969
3.90857463e+03,2.79999902,-1.25142434e-10,2.54215533,3.69982783,1.39409915,-3.34509847,9.52897587e-05,5.93261872,-2.76342144,-1,-0.998010197690427
4.09272057e+03,2.79999900,-1.20472725e-10,2.53193768,3.70043673,1.38777254,-3.34509847,9.52931658e-05,5.93879603,-2.74489648,-1,-0.9979063928025113
4.28538418e+03,2.79999897,-1.15975533e-10,2.52164932,3.70105075,1.38140032,-3.34509847,9.53187928e-05,5.94501911,-2.72623460,-1,-0.9977977864197614
4.48727251e+03,2.79999895,-1.11583304e-10,2.51127313,3.70166644,1.37498083,-3.34509847,9.53035063e-05,5.95129054,-2.70742448,-1,-0.9976839799710981
4.69840836e+03,2.79999893,-1.07293393e-10,2.50083611,3.70228907,1.36851707,-3.34509847,9.52600703e-05,5.95760644,-2.68848382,-1,-0.9975649606039362
4.91942691e+03,2.79999891,-1.03183421e-10,2.49029803,3.70290812,1.36200993,-3.34509847,9.52336087e-05,5.96396547,-2.66941164,-1,-0.9974403702610264
5.15096190e+03,2.79999888,-9.92002166e-11,2.47979289,3.70355821,1.35545717,-3.34509847,9.52556733e-05,5.97036977,-2.65020366,-1,-0.9973098516968618
5.39312130e+03,2.79999886,-9.53394159e-11,2.46911361,3.70418380,1.34886635,-3.34509847,9.52036175e-05,5.97681313,-2.63087724,-1,-0.9971733440476857
5.64647839e+03,2.79999884,-9.15877804e-11,2.45837745,3.70481413,1.34223762,-3.34509847,9.51300894e-05,5.98329531,-2.61143664,-1,-0.9970305241498909
5.91195529e+03,2.79999881,-8.80021967e-11,2.44756475,3.70544413,1.33557126,-3.34509847,9.50808107e-05,5.98981648,-2.59188133,-1,-0.9968808721953123
6.18973944e+03,2.79999879,-8.45081598e-11,2.43670400,3.70607979,1.32886958,-3.34509847,9.49996566e-05,5.99637361,-2.57221566,-1,-0.9967242825221676
6.48043349e+03,2.79999876,-8.11529781e-11,2.42585804,3.70673697,1.32213223,-3.34509847,9.49742803e-05,6.00296634,-2.55244097,-1,-0.9965604154106906
6.78453790e+03,2.79999874,-7.79019768e-11,2.41485961,3.70737230,1.31536236,-3.34509847,9.48750409e-05,6.00959218,-2.53256520,-1,-0.9963889887466287
7.10318015e+03,2.79999872,-7.47703944e-11,2.40383221,3.70801612,1.30856101,-3.34509847,9.47844572e-05,6.01624950,-2.51259726,-1,-0.9962093669583533
7.43658525e+03,2.79999869,-7.17474333e-11,2.39273686,3.70865792,1.30172974,-3.34509847,9.46750232e-05,6.02293761,-2.49253721,-1,-0.9960214232055015
7.78547545e+03,2.79999867,-6.88315685e-11,2.38159866,3.70930361,1.29486926,-3.34509847,9.45609744e-05,6.02965607,-2.47238299,-1,-0.9958247503486037
8.15062002e+03,2.79999864,-6.60346333e-11,2.37046350,3.70996491,1.28797908,-3.34509847,9.44872181e-05,6.03640578,-2.45213708,-1,-0.9956189147425519
8.53272761e+03,2.79999862,-6.33256062e-11,2.35923555,3.71061572,1.28106348,-3.34509847,9.43601260e-05,6.04318211,-2.43181298,-1,-0.9954035169143309
8.93287314e+03,2.79999859,-6.07235242e-11,2.34794040,3.71126164,1.27412407,-3.34509847,9.42174483e-05,6.04998235,-2.41141529,-1,-0.9951779509209041
9.35169127e+03,2.79999857,-5.82171942e-11,2.33659087,3.71190450,1.26716359,-3.34509847,9.40552089e-05,6.05680413,-2.39095011,-1,-0.9949418589981512
9.79000088e+03,2.79999854,-5.58104225e-11,2.32517767,3.71254010,1.26018579,-3.34509847,9.38743374e-05,6.06364460,-2.37043141,-1,-0.9946947795353163
1.02488433e+04,2.79999852,-5.34921002e-11,2.31383637,3.71320495,1.25318543,-3.34509847,9.37409580e-05,6.07050878,-2.34984271,-1,-0.9944361255243774
1.07289641e+04,2.79999849,-5.12678030e-11,2.30235567,3.71384315,1.24616868,-3.34509847,9.35507875e-05,6.07739118,-2.32919876,-1,-0.9941654766801509
1.12314677e+04,2.79999847,-4.91241146e-11,2.29084690,3.71448074,1.23913912,-3.34509847,9.33391804e-05,6.08428811,-2.30851184,-1,-0.9938822104301578
1.17573794e+04,2.79999844,-4.70624952e-11,2.27927357,3.71510705,1.23209983,-3.34509847,9.30900896e-05,6.09119599,-2.28779380,-1,-0.993585748802646
1.23079332e+04,2.79999842,-4.50914701e-11,2.26773829,3.71574657,1.22505315,-3.34509847,9.28773216e-05,6.09811179,-2.26704960,-1,-0.9932753961796092
1.28843749e+04,2.79999839,-4.31975014e-11,2.25626802,3.71640601,1.21799914,-3.34509847,9.26927392e-05,6.10503482,-2.24628114,-1,-0.992950450291264
1.34876821e+04,2.79999837,-4.13933039e-11,2.24468555,3.71703572,1.21094848,-3.34509847,9.24675069e-05,6.11195587,-2.22551591,-1,-0.9926103600548203
1.41194048e+04,2.79999834,-3.96544649e-11,2.23310382,3.71766093,1.20390721,-3.34509847,9.22032996e-05,6.11886912,-2.20477473,-1,-0.9922542517199456
1.47807709e+04,2.79999832,-3.79936238e-11,2.22153490,3.71828129,1.19688202,-3.34509847,9.19337302e-05,6.12576877,-2.18407698,-1,-0.991881433107264
1.54731976e+04,2.79999829,-3.64048895e-11,2.20999054,3.71889532,1.18988177,-3.34509847,9.16482951e-05,6.13264571,-2.16344664,-1,-0.9914911053271165
1.61984093e+04,2.79999827,-3.48876266e-11,2.19860456,3.71953321,1.18291300,-3.34509847,9.14117960e-05,6.13949284,-2.14290541,-1,-0.9910822963181658
1.69577008e+04,2.79999824,-3.34509640e-11,2.18719561,3.72014036,1.17599425,-3.34509847,9.11421929e-05,6.14629156,-2.12250889,-1,-0.990654276188844
1.77529286e+04,2.79999821,-3.20814817e-11,2.17588105,3.72073752,1.16914264,-3.34509847,9.08523053e-05,6.15302524,-2.10230499,-1,-0.9902059984117371
1.85859463e+04,2.79999819,-3.07804835e-11,2.16472148,3.72133119,1.16237551,-3.34509847,9.05636730e-05,6.15967776,-2.08234697,-1,-0.9897364180941893
1.94585050e+04,2.79999816,-2.95528558e-11,2.15369901,3.72190510,1.15571645,-3.34509847,9.02627493e-05,6.16622627,-2.06270137,-1,-0.9892445481238094
2.03732671e+04,2.79999814,-2.83944835e-11,2.14289731,3.72246600,1.14919380,-3.34509847,8.99536116e-05,6.17264209,-2.04345882,-1,-0.988728887679381
2.13328057e+04,2.79999811,-2.73063158e-11,2.13244949,3.72303270,1.14283649,-3.34509847,8.96820821e-05,6.17889576,-2.02470243,-1,-0.9881879862789819
2.23383834e+04,2.79999808,-2.62997100e-11,2.12225397,3.72356431,1.13667552,-3.34509847,8.94118116e-05,6.18495691,-2.00652001,-1,-0.9876211321825024
2.33926769e+04,2.79999806,-2.53622628e-11,2.11248119,3.72408707,1.13074361,-3.34509847,8.91642903e-05,6.19079319,-1.98901106,-1,-0.9870268165076751
2.44997586e+04,2.79999803,-2.44936985e-11,2.10309115,3.72457183,1.12507907,-3.34509847,8.88799347e-05,6.19636723,-1.97228901,-1,-0.9864027436023367
2.56601419e+04,2.79999800,-2.36984343e-11,2.09415227,3.72502772,1.11969786,-3.34509847,8.86127285e-05,6.20166291,-1.95640104,-1,-0.9857486240578287
2.68778760e+04,2.79999797,-2.29688443e-11,2.08571357,3.72545640,1.11462114,-3.34509847,8.83459774e-05,6.20665988,-1.94140913,-1,-0.9850621753000571
2.81566828e+04,2.79999794,-2.23033772e-11,2.07778582,3.72585649,1.10985709,-3.34509847,8.80867034e-05,6.21134971,-1.92733836,-1,-0.9843412992571757
2.94978785e+04,2.79999791,-2.16976159e-11,2.07033773,3.72623092,1.10538417,-3.34509847,8.78476195e-05,6.21575363,-1.91412468,-1,-0.9835852539742247
3.09044690e+04,2.79999788,-2.11432087e-11,2.06332336,3.72658265,1.10117354,-3.34509847,8.76250832e-05,6.21989996,-1.90168541,-1,-0.9827923449956404
3.23788901e+04,2.79999785,-2.06293924e-11,2.05668806,3.72692208,1.09717702,-3.34509847,8.74245095e-05,6.22383587,-1.88987943,-1,-0.9819611992368683
3.39248381e+04,2.79999782,-2.01489481e-11,2.05031907,3.72725083,1.09333503,-3.34509847,8.72403647e-05,6.22761976,-1.87852847,-1,-0.9810897330570353
3.55482077e+04,2.79999779,-1.96987586e-11,2.04405602,3.72756346,1.08957824,-3.34509847,8.70823621e-05,6.23132031,-1.86742670,-1,-0.980174623555442
3.72466945e+04,2.79999776,-1.92570175e-11,2.03777710,3.72787347,1.08581876,-3.34509847,8.69146489e-05,6.23502365,-1.85631686,-1,-0.9792171697451633
3.90230337e+04,2.79999772,-1.88168141e-11,2.03135924,3.72818905,1.08197866,-3.34509847,8.67470183e-05,6.23880688,-1.84496693,-1,-0.9782158297669029
4.08882041e+04,2.79999769,-1.83643639e-11,2.02462442,3.72852071,1.07794795,-3.34509847,8.65623337e-05,6.24277822,-1.83305221,-1,-0.9771644147625007
4.28364201e+04,2.79999765,-1.78947368e-11,2.01743766,3.72887294,1.07365009,-3.34509847,8.63693361e-05,6.24701309,-1.82034911,-1,-0.9760661861319067
4.48723812e+04,2.79999762,-1.73948114e-11,2.00963333,3.72925401,1.06898580,-3.34509847,8.61398210e-05,6.25160972,-1.80656183,-1,-0.9749184947204842
4.70004492e+04,2.79999758,-1.68571862e-11,2.00101458,3.72967354,1.06383737,-3.34509847,8.58735446e-05,6.25668358,-1.79134290,-1,-0.9737188817384272
4.92226853e+04,2.79999755,-1.62749666e-11,1.99147068,3.73015966,1.05809317,-3.34509847,8.55993706e-05,6.26234527,-1.77435680,-1,-0.9724661852669069
5.15370207e+04,2.79999751,-1.56447464e-11,1.98071258,3.73068031,1.05167282,-3.34509847,8.52349633e-05,6.26867437,-1.75536605,-1,-0.9711615715089471
5.39456721e+04,2.79999747,-1.49653310e-11,1.96868117,3.73126471,1.04448831,-3.34509847,8.48136021e-05,6.27575838,-1.73411094,-1,-0.9698037908888308
5.64486191e+04,2.79999744,-1.42452517e-11,1.95533535,3.73191033,1.03652416,-3.34509847,8.43366431e-05,6.28361359,-1.71054312,-1,-0.9683928549062399
5.90379094e+04,2.79999740,-1.34981748e-11,1.94083271,3.73263340,1.02782671,-3.34509847,8.38503173e-05,6.29017543,-1.67959431,-1,-0.9669332463513469
6.17306560e+04,2.79999737,-1.27628850e-11,1.92607251,3.73343045,1.01885250,-3.34509847,8.34008340e-05,6.29539180,-1.64281436,-1,-0.9654153184567732
6.45483410e+04,2.79999733,-1.20835300e-11,1.91138390,3.73421187,1.00994536,-3.34509847,8.30136186e-05,6.30153768,-1.60664158,-1,-0.9638269615502519
6.74998319e+04,2.79999730,-1.14516989e-11,1.89685588,3.73498200,1.00114110,-3.34509847,8.26548026e-05,6.30807491,-1.57148467,-1,-0.9621631769343172
7.05909197e+04,2.79999726,-1.08598631e-11,1.88253145,3.73574293,9.92457026e-01,-3.34509847,8.22958746e-05,6.31493731,-1.53691055,-1,-0.9604207001649857
7.38282911e+04,2.79999723,-1.03066185e-11,1.86844762,3.73650149,9.83897989e-01,-3.34509848,8.19554468e-05,6.32201950,-1.50275360,-1,-0.9585957618833238
7.72188597e+04,2.79999719,-9.79025652e-12,1.85463267,3.73726277,9.75467949e-01,-3.34509848,8.16519657e-05,6.32925450,-1.46890221,-1,-0.9566844648246233
8.07691466e+04,2.79999716,-9.30850574e-12,1.84102309,3.73800905,9.67170597e-01,-3.34509848,8.13565835e-05,6.33660506,-1.43525258,-1,-0.9546831329803089
8.44898944e+04,2.79999713,-8.85623901e-12,1.82773317,3.73876569,9.59012361e-01,-3.34509848,8.10848975e-05,6.34404274,-1.40176332,-1,-0.9525857106404966
8.83858876e+04,2.79999709,-8.43689804e-12,1.81467507,3.73950963,9.50995419e-01,-3.34509848,8.08516184e-05,6.35154394,-1.36836043,-1,-0.950389500735209
9.24656399e+04,2.79999706,-8.04510002e-12,1.80190004,3.74025039,9.43126393e-01,-3.34509848,8.06431281e-05,6.35909700,-1.33500288,-1,-0.9480897040075403
9.67398995e+04,2.79999703,-7.67843729e-12,1.78944495,3.74099496,9.35409700e-01,-3.34509848,8.04636878e-05,6.36670103,-1.30164676,-1,-0.9456802615908312
1.01218126e+05,2.79999699,-7.33644090e-12,1.77729598,3.74173613,9.27852883e-01,-3.34509848,8.03132333e-05,6.37435391,-1.26825470,-1,-0.943155841014989
1.05907296e+05,2.79999696,-7.01672228e-12,1.76551090,3.74248744,9.20457711e-01,-3.34509848,8.02091811e-05,6.38206060,-1.23478901,-1,-0.9405125095015825
1.10823235e+05,2.79999693,-6.72117247e-12,1.75407011,3.74323642,9.13239367e-01,-3.34509848,8.01642606e-05,6.38982177,-1.20121205,-1,-0.9377413460597189
1.15970752e+05,2.79999689,-6.44523371e-12,1.74302418,3.74399417,9.06200900e-01,-3.34509848,8.01663995e-05,6.39765016,-1.16749517,-1,-0.9348396398085284
1.21367406e+05,2.79999686,-6.18910563e-12,1.73241505,3.74476411,8.99356466e-01,-3.34509848,8.02340923e-05,6.40555111,-1.13359062,-1,-0.9317974925660204
1.27018831e+05,2.79999683,-5.95216864e-12,1.72225304,3.74554404,8.92715587e-01,-3.34509848,8.03757731e-05,6.41353141,-1.09947280,-1,-0.9286117283906646
1.32946089e+05,2.79999679,-5.73411180e-12,1.71262562,3.74634552,8.86298924e-01,-3.34509848,8.06164248e-05,6.42160500,-1.06510649,-1,-0.9252704744247195
1.39153347e+05,2.79999676,-5.53347271e-12,1.70350494,3.74715544,8.80118749e-01,-3.34509848,8.09341188e-05,6.42978892,-1.03046070,-1,-0.9217713816890661
1.45662326e+05,2.79999672,-5.34993389e-12,1.69503618,3.74799728,8.74200680e-01,-3.34509848,8.13733560e-05,6.43808908,-9.95474085e-01,-1,-0.918102205841144
1.52484526e+05,2.79999669,-5.18412127e-12,1.68721555,3.74885833,8.68568257e-01,-3.34509848,8.19342165e-05,6.44652817,-9.60111084e-01,-1,-0.9142564642171975
1.59632471e+05,2.79999665,-5.03484244e-12,1.68012085,3.74974253,8.63252511e-01,-3.34509849,8.26206087e-05,6.45511630,-9.24330261e-01,-1,-0.9102270969145414
