star_age,star_mass,star_mdot,log_L,log_Teff,log_R,log_surf_z,v_wind_Km_per_s,log_center_T,log_center_Rho,phase,x
3.18417410e+02,3.39999978,-6.06167861e-10,3.00563643,3.66287066,1.69975405,-3.34509851,4.83046273e-05,5.71481749,-3.57866729,-1,-1.0
3.33442353e+02,3.39999977,-5.98241482e-10,3.00213836,3.66303331,1.69767971,-3.34509851,4.82017951e-05,5.71683731,-3.57261837,-1,-0.999986753528205
3.49143799e+02,3.39999976,-5.90330152e-10,2.99863172,3.66322727,1.69553848,-3.34509851,4.81324026e-05,5.71892218,-3.56637335,-1,-0.999972910629661
3.58090105e+02,3.39999975,-5.83779453e-10,3.02345112,3.67028789,1.69382693,-3.34509851,6.80061901e-05,5.72018062,-3.56261268,-1,-0.9999650232792665
3.67942155e+02,3.39999975,-6.24191749e-10,3.04604281,3.67687493,1.69194870,-3.34509851,9.35537693e-05,5.72163403,-3.55826816,-1,-0.9999563373959026
3.85216373e+02,3.39999974,-6.38736414e-10,3.04212466,3.67718791,1.68936367,-3.34509847,9.74039923e-05,5.72415214,-3.55072493,-1,-0.999941107891104
4.03336386e+02,3.39999972,-6.30328720e-10,3.03791362,3.67746679,1.68670038,-3.34509847,9.77733630e-05,5.72674777,-3.54294906,-1,-0.9999251327062977
4.22259030e+02,3.39999971,-6.21701695e-10,3.03358039,3.67775132,1.68396471,-3.34509847,9.81328786e-05,5.72941417,-3.53495973,-1,-0.9999084498962509
4.42039302e+02,3.39999970,-6.12272071e-10,3.02911867,3.67804187,1.68115275,-3.34509847,9.83903972e-05,5.73215514,-3.52674698,-1,-0.999891010973844
4.62826822e+02,3.39999969,-6.02129864e-10,3.02452160,3.67834264,1.67825267,-3.34509847,9.85642625e-05,5.73498216,-3.51827833,-1,-0.9998726840292849
4.84559969e+02,3.39999968,-5.91667696e-10,3.01979827,3.67865209,1.67527211,-3.34509847,9.87089076e-05,5.73788776,-3.50957361,-1,-0.9998535233896237
5.07276476e+02,3.39999966,-5.81075251e-10,3.01498192,3.67897884,1.67221044,-3.34509847,9.88743419e-05,5.74087251,-3.50063038,-1,-0.9998334957882374
5.31004561e+02,3.39999965,-5.70299316e-10,3.01001639,3.67930865,1.66906804,-3.34509847,9.90149683e-05,5.74393642,-3.49145119,-1,-0.9998125763472319
5.55908372e+02,3.39999963,-5.59384200e-10,3.00490592,3.67964741,1.66583530,-3.34509847,9.91490724e-05,5.74708863,-3.48200682,-1,-0.9997906203484638
5.81981843e+02,3.39999962,-5.48565233e-10,2.99976427,3.68002210,1.66251509,-3.34509847,9.93839260e-05,5.75032555,-3.47230863,-1,-0.9997676331399133
6.09180155e+02,3.39999961,-5.37608849e-10,2.99437170,3.68037360,1.65911580,-3.34509847,9.95306926e-05,5.75364045,-3.46237585,-1,-0.9997436542354491
6.37742159e+02,3.39999959,-5.26648208e-10,2.98883679,3.68073568,1.65562419,-3.34509847,9.96940816e-05,5.75704539,-3.45217326,-1,-0.9997184730563662
6.67585423e+02,3.39999958,-5.15610723e-10,2.98321535,3.68111799,1.65204884,-3.34509847,9.98817184e-05,5.76053197,-3.44172596,-1,-0.9996921622773605
6.98797934e+02,3.39999956,-5.04504365e-10,2.97742452,3.68150075,1.64838791,-3.34509847,1.00044532e-04,5.76410218,-3.43102588,-1,-0.99966464432627
7.31498507e+02,3.39999954,-4.93353553e-10,2.97146921,3.68188686,1.64463804,-3.34509847,1.00190861e-04,5.76775962,-3.42006564,-1,-0.9996358144519787
7.65678905e+02,3.39999953,-4.82237320e-10,2.96536184,3.68227695,1.64080417,-3.34509847,1.00335897e-04,5.77149923,-3.40885849,-1,-0.9996056799164901
8.01459311e+02,3.39999951,-4.71106215e-10,2.95912203,3.68267750,1.63688318,-3.34509847,1.00483512e-04,5.77532424,-3.39739462,-1,-0.9995741347626156
8.38925293e+02,3.39999949,-4.59998648e-10,2.95300133,3.68315348,1.63287085,-3.34509847,1.00801529e-04,5.77923751,-3.38566768,-1,-0.999541103550861
8.78048394e+02,3.39999947,-4.48758006e-10,2.94649776,3.68357481,1.62877642,-3.34509847,1.00927756e-04,5.78323222,-3.37369556,-1,-0.9995066113698305
9.19064049e+02,3.39999946,-4.37986050e-10,2.93985580,3.68400574,1.62459358,-3.34509847,1.01154315e-04,5.78731369,-3.36146313,-1,-0.9994704506524748
9.61972577e+02,3.39999944,-4.27080353e-10,2.93307554,3.68444410,1.62032672,-3.34509847,1.01339058e-04,5.79147766,-3.34898203,-1,-0.999432621117553
1.00680451e+03,3.39999942,-4.16166120e-10,2.92614360,3.68488518,1.61597860,-3.34509847,1.01495211e-04,5.79572120,-3.33626376,-1,-0.9993930958470746
1.05369732e+03,3.39999940,-4.05297031e-10,2.91908730,3.68533671,1.61154737,-3.34509847,1.01650434e-04,5.80004676,-3.32329865,-1,-0.9993517536413137
1.10286531e+03,3.39999938,-3.94484465e-10,2.91210426,3.68585147,1.60702635,-3.34509847,1.01936442e-04,5.80445937,-3.31007157,-1,-0.9993084055638701
1.15425009e+03,3.39999936,-3.83846239e-10,2.90486020,3.68634179,1.60242367,-3.34509847,1.02163400e-04,5.80895231,-3.29660278,-1,-0.9992631030932411
1.20799366e+03,3.39999934,-3.73239684e-10,2.89742669,3.68682532,1.59773986,-3.34509847,1.02333977e-04,5.81352526,-3.28289573,-1,-0.9992157210376708
1.26420923e+03,3.39999932,-3.62672187e-10,2.88989152,3.68732418,1.59297455,-3.34509847,1.02502766e-04,5.81817811,-3.26894861,-1,-0.9991661595875913
1.32300711e+03,3.39999930,-3.52275280e-10,2.88217587,3.68781749,1.58813011,-3.34509847,1.02649865e-04,5.82290877,-3.25476789,-1,-0.9991143214901672
1.38450457e+03,3.39999928,-3.42096332e-10,2.87434141,3.68832003,1.58320779,-3.34509847,1.02825260e-04,5.82771590,-3.24035793,-1,-0.9990601033564045
1.44881831e+03,3.39999926,-3.32040754e-10,2.86640743,3.68883604,1.57820879,-3.34509847,1.03010898e-04,5.83259846,-3.22572080,-1,-0.9990034022998389
1.51614662e+03,3.39999923,-3.22366839e-10,2.85832764,3.68935357,1.57313384,-3.34509847,1.03253718e-04,5.83755597,-3.21085917,-1,-0.9989440435016446
1.58657514e+03,3.39999921,-3.12755457e-10,2.85015089,3.68988327,1.56798606,-3.34509847,1.03482391e-04,5.84258483,-3.19577998,-1,-0.9988819514588501
1.66025110e+03,3.39999919,-3.03086304e-10,2.84193500,3.69044119,1.56276227,-3.34509847,1.03692443e-04,5.84768860,-3.18047752,-1,-0.9988169963687638
1.73730812e+03,3.39999917,-2.93722055e-10,2.83350987,3.69098239,1.55746731,-3.34509847,1.03887303e-04,5.85286252,-3.16496285,-1,-0.9987490604277066
1.81787475e+03,3.39999914,-2.84564863e-10,2.82494947,3.69152370,1.55210449,-3.34509847,1.04078154e-04,5.85810334,-3.14924881,-1,-0.9986780303018745
1.90211678e+03,3.39999912,-2.75489109e-10,2.81625611,3.69206557,1.54667406,-3.34509847,1.04218120e-04,5.86341117,-3.13333324,-1,-0.9986037598254843
1.99022970e+03,3.39999910,-2.66612652e-10,2.80767389,3.69267128,1.54117154,-3.34509847,1.04510619e-04,5.86879011,-3.11720546,-1,-0.9985260766482802
2.08245468e+03,3.39999907,-2.57875704e-10,2.79879078,3.69323469,1.53560316,-3.34509847,1.04656598e-04,5.87423476,-3.10087951,-1,-0.9984447681470525
2.17890840e+03,3.39999905,-2.49327386e-10,2.78983167,3.69381159,1.52996981,-3.34509847,1.04819003e-04,5.87974389,-3.08436195,-1,-0.9983597314529699
2.27970776e+03,3.39999902,-2.41013617e-10,2.78072990,3.69438347,1.52427517,-3.34509847,1.04969032e-04,5.88531356,-3.06766047,-1,-0.9982708635032419
2.38511991e+03,3.39999900,-2.32889723e-10,2.77151939,3.69495816,1.51852054,-3.34509847,1.05107220e-04,5.89094247,-3.05078122,-1,-0.9981779287698574
2.49553819e+03,3.39999897,-2.24956011e-10,2.76242282,3.69559183,1.51270491,-3.34509847,1.05372973e-04,5.89654574,-3.03387597,-1,-0.9980805804716529
2.61086006e+03,3.39999895,-2.17216205e-10,2.75305110,3.69618507,1.50683256,-3.34509847,1.05519743e-04,5.90226016,-3.01670427,-1,-0.9979789090111824
2.73147753e+03,3.39999892,-2.09666101e-10,2.74357508,3.69678057,1.50090355,-3.34509847,1.05650857e-04,5.90805208,-2.99932439,-1,-0.9978725687798528
2.85769827e+03,3.39999890,-2.02314897e-10,2.73405540,3.69739456,1.49491573,-3.34509847,1.05812316e-04,5.91391102,-2.98175374,-1,-0.9977612885259209
2.98951349e+03,3.39999887,-1.95146165e-10,2.72439706,3.69799954,1.48887661,-3.34509847,1.05930550e-04,5.91982156,-2.96402795,-1,-0.9976450759989333
3.12759293e+03,3.39999885,-1.88125793e-10,2.71461938,3.69860124,1.48278436,-3.34509847,1.05989019e-04,5.92578377,-2.94614366,-1,-0.9975233407346181
3.27180758e+03,3.39999882,-1.81341803e-10,2.70485656,3.69923210,1.47664123,-3.34509847,1.06131843e-04,5.93179775,-2.92810835,-1,-0.9973961964723307
3.42278247e+03,3.39999879,-1.74742964e-10,2.69493789,3.69984862,1.47044886,-3.34509847,1.06212166e-04,5.93786175,-2.90991978,-1,-0.9972630921655701
3.58042591e+03,3.39999877,-1.68273099e-10,2.68491776,3.70046283,1.46421037,-3.34509847,1.06232493e-04,5.94397138,-2.89159803,-1,-0.997124108651182
3.74554506e+03,3.39999874,-1.62049898e-10,2.67480845,3.70107767,1.45792604,-3.34509847,1.06266411e-04,5.95012680,-2.87313687,-1,-0.9969785343110141
3.91808861e+03,3.39999871,-1.56022470e-10,2.66474194,3.70172631,1.45159549,-3.34509847,1.06376768e-04,5.95632875,-2.85453848,-1,-0.9968264143816089
4.09849944e+03,3.39999868,-1.50175086e-10,2.65453863,3.70236226,1.44522196,-3.34509847,1.06436163e-04,5.96257473,-2.83580722,-1,-0.9966673584057493
4.28725814e+03,3.39999866,-1.44512803e-10,2.64421742,3.70298865,1.43880857,-3.34509847,1.06453910e-04,5.96886057,-2.81695406,-1,-0.9965009426798723
4.48451621e+03,3.39999863,-1.39008086e-10,2.63384325,3.70362163,1.43235552,-3.34509847,1.06458848e-04,5.97518614,-2.79797995,-1,-0.9963270336367176
4.69082937e+03,3.39999860,-1.33690704e-10,2.62351745,3.70428714,1.42586160,-3.34509847,1.06536667e-04,5.98155230,-2.77888520,-1,-0.9961451413357039
4.90667615e+03,3.39999857,-1.28580532e-10,2.61299632,3.70492259,1.41933013,-3.34509847,1.06550493e-04,5.98795637,-2.75967516,-1,-0.9959548438894305
5.13232030e+03,3.39999854,-1.23613830e-10,2.60246872,3.70557362,1.41276426,-3.34509847,1.06568086e-04,5.99439509,-2.74036156,-1,-0.9957559087674354
5.36814707e+03,3.39999852,-1.18813510e-10,2.59181098,3.70620861,1.40616541,-3.34509847,1.06533678e-04,6.00086785,-2.72094546,-1,-0.9955479963209587
5.61480029e+03,3.39999849,-1.14163511e-10,2.58110344,3.70684759,1.39953368,-3.34509847,1.06482857e-04,6.00737461,-2.70143026,-1,-0.9953305389288164
5.87283653e+03,3.39999846,-1.09661547e-10,2.57032649,3.70748514,1.39287012,-3.34509847,1.06401668e-04,6.01391405,-2.68181604,-1,-0.9951030459010399
6.14264760e+03,3.39999843,-1.05329383e-10,2.55959605,3.70815060,1.38617398,-3.34509847,1.06389979e-04,6.02048606,-2.66210476,-1,-0.9948651718053629
6.42469045e+03,3.39999840,-1.01167532e-10,2.54873917,3.70879803,1.37945067,-3.34509847,1.06341104e-04,6.02708533,-2.64231047,-1,-0.9946165137800049
6.71953652e+03,3.39999837,-9.71284033e-11,2.53781058,3.70944063,1.37270117,-3.34509847,1.06242020e-04,6.03371096,-2.62243453,-1,-0.9943565680251284
7.02792555e+03,3.39999834,-9.32432673e-11,2.52691185,3.71010448,1.36592413,-3.34509847,1.06193478e-04,6.04036493,-2.60247306,-1,-0.9940846823622164
7.35052240e+03,3.39999831,-8.95108840e-11,2.51590537,3.71075384,1.35912216,-3.34509847,1.06108143e-04,6.04704495,-2.58243313,-1,-0.9938002706293618
7.68786497e+03,3.39999828,-8.59106478e-11,2.50491356,3.71141960,1.35229473,-3.34509847,1.06048937e-04,6.05374494,-2.56230830,-1,-0.9935028585966675
8.04050482e+03,3.39999825,-8.24294465e-11,2.49382302,3.71207124,1.34544617,-3.34509847,1.05927420e-04,6.06041348,-2.54205918,-1,-0.9931919599911417
8.40917996e+03,3.39999823,-7.90890194e-11,2.48265602,3.71271310,1.33857896,-3.34509847,1.05786929e-04,6.06703721,-2.52167301,-1,-0.9928669241594907
8.79477718e+03,3.39999820,-7.58597867e-11,2.47156886,3.71338521,1.33169117,-3.34509847,1.05690815e-04,6.07362261,-2.50114237,-1,-0.9925269692791995
9.19786355e+03,3.39999817,-7.28037678e-11,2.46038872,3.71404194,1.32478763,-3.34509847,1.05618619e-04,6.08017716,-2.48048421,-1,-0.9921715954031629
9.61929706e+03,3.39999814,-6.98265105e-11,2.44920094,3.71470358,1.31787047,-3.34509847,1.05494881e-04,6.08670326,-2.45970167,-1,-0.9918000460998698
1.00602932e+04,3.39999811,-6.69723244e-11,2.43798508,3.71536392,1.31094185,-3.34509847,1.05369539e-04,6.09320624,-2.43880537,-1,-0.9914112497543397
1.05213303e+04,3.39999808,-6.42189238e-11,2.42670921,3.71601316,1.30400543,-3.34509847,1.05191489e-04,6.09969214,-2.41781133,-1,-0.9910047846554982
1.10033901e+04,3.39999805,-6.15828405e-11,2.41540255,3.71665675,1.29706494,-3.34509847,1.05007947e-04,6.10616496,-2.39673627,-1,-0.9905797852698642
1.15075285e+04,3.39999802,-5.90481580e-11,2.40415078,3.71731546,1.29012162,-3.34509847,1.04845245e-04,6.11263132,-2.37559034,-1,-0.9901353206821212
1.20346116e+04,3.39999799,-5.66218977e-11,2.39283499,3.71795659,1.28318147,-3.34509847,1.04646767e-04,6.11909498,-2.35440330,-1,-0.9896706273107219
1.25857759e+04,3.39999796,-5.42864770e-11,2.38151292,3.71859263,1.27624835,-3.34509847,1.04414721e-04,6.12556337,-2.33320273,-1,-0.9891847031808039
1.31623039e+04,3.39999792,-5.20608875e-11,2.37028098,3.71924671,1.26932423,-3.34509847,1.04244867e-04,6.13204214,-2.31201069,-1,-0.9886764175992209
1.37653877e+04,3.39999789,-4.99275148e-11,2.35900117,3.71987929,1.26241915,-3.34509847,1.04018399e-04,6.13853361,-2.29087052,-1,-0.9881447195723665
1.43963221e+04,3.39999786,-4.78823234e-11,2.34775405,3.72050888,1.25553641,-3.34509847,1.03773418e-04,6.14504624,-2.26981732,-1,-0.9875884675630195
1.50562275e+04,3.39999783,-4.59266348e-11,2.33651689,3.72112437,1.24868685,-3.34509847,1.03496363e-04,6.15159421,-2.24886685,-1,-0.9870066737905943
1.57468480e+04,3.39999780,-4.40753953e-11,2.32548998,3.72177559,1.24187095,-3.34509847,1.03342117e-04,6.15814393,-2.22809591,-1,-0.9863978006005746
1.64691276e+04,3.39999777,-4.23052688e-11,2.31440170,3.72238593,1.23510614,-3.34509847,1.03091812e-04,6.16467913,-2.20756336,-1,-0.985761015732274
1.72247246e+04,3.39999774,-4.06145582e-11,2.30339783,3.72298933,1.22839741,-3.34509847,1.02823913e-04,6.17119003,-2.18724245,-1,-0.9850948571752093
1.80151672e+04,3.39999771,-3.90044503e-11,2.29248864,3.72358376,1.22175394,-3.34509847,1.02545607e-04,6.17764496,-2.16712104,-1,-0.9843979776192311
1.88430789e+04,3.39999768,-3.74700889e-11,2.28168692,3.72416641,1.21518779,-3.34509847,1.02240229e-04,6.18402030,-2.14709982,-1,-0.9836680641025694
1.97096723e+04,3.39999765,-3.60239880e-11,2.27111690,3.72476674,1.20870213,-3.34509847,1.02022597e-04,6.19016140,-2.12730254,-1,-0.9829040475581604
2.06160790e+04,3.39999761,-3.46516005e-11,2.26059932,3.72533553,1.20230576,-3.34509847,1.01754168e-04,6.19603341,-2.10755367,-1,-0.9821049303311389
2.15643610e+04,3.39999758,-3.33466908e-11,2.25022268,3.72589284,1.19600282,-3.34509847,1.01473230e-04,6.20159619,-2.08770160,-1,-0.9812688944961495
2.25577965e+04,3.39999755,-3.21064865e-11,2.23999991,3.72644021,1.18979668,-3.34509847,1.01178951e-04,6.20680798,-2.06760341,-1,-0.9803930498868976
2.35965118e+04,3.39999752,-3.09286932e-11,2.22992137,3.72697913,1.18367958,-3.34509847,1.00888593e-04,6.21167631,-2.04718840,-1,-0.9794772851532512
2.46838272e+04,3.39999748,-2.98134279e-11,2.22001548,3.72751629,1.17765230,-3.34509847,1.00625354e-04,6.21618351,-2.02648226,-1,-0.9785186730122047
2.58220055e+04,3.39999745,-2.87542708e-11,2.21035960,3.72807652,1.17170391,-3.34509847,1.00437294e-04,6.22059159,-2.00521554,-1,-0.9775152185066808
2.70117314e+04,3.39999742,-2.77472288e-11,2.20073849,3.72860750,1.16583140,-3.34509847,1.00212046e-04,6.22488622,-1.98354712,-1,-0.9764663179831921
2.82580323e+04,3.39999738,-2.67845883e-11,2.19126419,3.72913806,1.16003313,-3.34509847,9.99880742e-05,6.22914711,-1.96150327,-1,-0.9753675391246042
2.95602306e+04,3.39999735,-2.58680805e-11,2.18191901,3.72966838,1.15429990,-3.34509847,9.97927902e-05,6.23342401,-1.93914529,-1,-0.9742194793248165
3.09249712e+04,3.39999732,-2.49931235e-11,2.17268745,3.73019502,1.14863084,-3.34509847,9.96010733e-05,6.23776189,-1.91648687,-1,-0.9730162802268004
3.23504607e+04,3.39999728,-2.41552411e-11,2.16356064,3.73072151,1.14301446,-3.34509847,9.94245234e-05,6.24218766,-1.89357573,-1,-0.9717595229495337
3.38444439e+04,3.39999725,-2.33515842e-11,2.15454164,3.73125162,1.13744474,-3.34509847,9.92592988e-05,6.24673613,-1.87037558,-1,-0.9704423794288594
3.54052803e+04,3.39999721,-2.25847706e-11,2.14565217,3.73179794,1.13190736,-3.34509847,9.91638928e-05,6.25141825,-1.84688531,-1,-0.9690662959822097
3.70398400e+04,3.39999717,-2.18481665e-11,2.13676489,3.73233227,1.12639506,-3.34509848,9.90521975e-05,6.25627851,-1.82302684,-1,-0.967625215709011
3.87479221e+04,3.39999714,-2.11368421e-11,2.12796471,3.73288259,1.12089433,-3.34509848,9.89785250e-05,6.26134324,-1.79872314,-1,-0.9661193157291487
4.05355972e+04,3.39999710,-2.04508754e-11,2.11919611,3.73343956,1.11539608,-3.34509848,9.89244389e-05,6.26657036,-1.77404736,-1,-0.9645432440068992
4.24049132e+04,3.39999706,-1.97887006e-11,2.11044686,3.73400338,1.10989382,-3.34509848,9.88936401e-05,6.27197963,-1.74899039,-1,-0.9628951950479196
4.43588671e+04,3.39999703,-1.91471707e-11,2.10172886,3.73457946,1.10438266,-3.34509848,9.88875367e-05,6.27759222,-1.72353970,-1,-0.9611725266008573
4.64043952e+04,3.39999699,-1.85254002e-11,2.09304076,3.73516809,1.09886135,-3.34509848,9.89019954e-05,6.28343218,-1.69762409,-1,-0.9593691234010943
4.85423688e+04,3.39999695,-1.79289088e-11,2.08440082,3.73577216,1.09333324,-3.34509848,9.89796416e-05,6.28948683,-1.67125705,-1,-0.9574842172825966
5.07774186e+04,3.39999691,-1.73533619e-11,2.07586396,3.73640430,1.08780053,-3.34509848,9.91254485e-05,6.29574525,-1.64441892,-1,-0.9555137256716774
5.31166233e+04,3.39999687,-1.67980448e-11,2.06732597,3.73703339,1.08227336,-3.34509848,9.92698702e-05,6.30219996,-1.61709373,-1,-0.9534514077593099
5.55629633e+04,3.39999683,-1.62626055e-11,2.05891792,3.73768873,1.07675865,-3.34509848,9.94759405e-05,6.30884532,-1.58928685,-1,-0.9512946359292342
5.81209134e+04,3.39999679,-1.57504494e-11,2.05059315,3.73835419,1.07126535,-3.34509848,9.97316394e-05,6.31567985,-1.56098908,-1,-0.9490394650542049
6.07959773e+04,3.39999675,-1.52590473e-11,2.04239918,3.73903512,1.06580650,-3.34509848,1.00035645e-04,6.32270101,-1.53218950,-1,-0.9466810428957263
6.35939641e+04,3.39999671,-1.47894946e-11,2.03437217,3.73973421,1.06039482,-3.34509848,1.00401095e-04,6.32991128,-1.50289220,-1,-0.9442142479648649
6.65205539e+04,3.39999666,-1.43428372e-11,2.02650386,3.74044083,1.05504741,-3.34509848,1.00815326e-04,6.33730547,-1.47309500,-1,-0.9416340725032254
6.95824569e+04,3.39999662,-1.39177856e-11,2.01889263,3.74117057,1.04978232,-3.34509848,1.01303712e-04,6.34488283,-1.44278113,-1,-0.9389346005832043
7.27858269e+04,3.39999658,-1.35184565e-11,2.01156446,3.74191963,1.04462011,-3.34509848,1.01889879e-04,6.35264372,-1.41193773,-1,-0.9361104068172889
7.61378101e+04,3.39999653,-1.31435811e-11,2.00462419,3.74270286,1.03958352,-3.34509848,1.02599734e-04,6.36058547,-1.38054481,-1,-0.9331551908862871
7.96451902e+04,3.39999649,-1.27955861e-11,1.99803182,3.74349656,1.03469994,-3.34509848,1.03405379e-04,6.36872133,-1.34859776,-1,-0.930062972062637
8.33154979e+04,3.39999644,-1.24739213e-11,1.99191335,3.74431610,1.03000162,-3.34509848,1.04335701e-04,6.37706022,-1.31608003,-1,-0.9268271110396107
8.71565893e+04,3.39999639,-1.21812780e-11,1.98639943,3.74517675,1.02552338,-3.34509848,1.05452242e-04,6.38560559,-1.28296254,-1,-0.9234406816274007
9.11765004e+04,3.39999635,-1.19202312e-11,1.98151191,3.74606287,1.02130736,-3.34509848,1.06741238e-04,6.39437042,-1.24920759,-1,-0.9198965990305872
9.53829274e+04,3.39999630,-1.16921025e-11,1.97737966,3.74698019,1.01740660,-3.34509848,1.08231371e-04,6.40337616,-1.21480146,-1,-0.9161880780323327
9.97842979e+04,3.39999624,-1.14999076e-11,1.97415438,3.74793513,1.01388408,-3.34509848,1.09961737e-04,6.41263596,-1.17970214,-1,-0.9123076885900939
1.04388593e+05,3.39999619,-1.13487174e-11,1.97201402,3.74893536,1.01081344,-3.34509848,1.11993021e-04,6.42216464,-1.14387730,-1,-0.9082483943100529
1.09203042e+05,3.39999614,-1.12442438e-11,1.97117835,3.74999064,1.00828505,-3.34509849,1.14396458e-04,6.43198840,-1.10728316,-1,-0.9040038216093914
1.14233277e+05,3.39999608,-1.11942966e-11,1.97189489,3.75110981,1.00640498,-3.34509849,1.17260683e-04,6.44212420,-1.06987220,-1,-0.8995690050480545
1.19482405e+05,3.39999602,-1.12090201e-11,1.97445419,3.75230414,1.00529597,-3.34509849,1.20702892e-04,6.45260081,-1.03162368,-1,-0.8949412053951601
1.24948096e+05,3.39999596,-1.13022878e-11,1.97919392,3.75358869,1.00509674,-3.34509849,1.24888727e-04,6.46344359,-9.92527992e-01,-1,-0.8901224768534618
