star_age,star_mass,star_mdot,log_L,log_Teff,log_R,log_surf_z,v_wind_Km_per_s,log_center_T,log_center_Rho,phase,x
2.97717592e+02,3.79999975,-7.36405167e-10,3.09376969,3.66250704,1.74454791,-3.34509849,5.08530608e-05,5.71604574,-3.66697898,-1,-1.0
3.11532492e+02,3.79999974,-7.27109965e-10,3.09028855,3.66267378,1.74247388,-3.34509849,5.07721529e-05,5.71807090,-3.66091212,-1,-0.9999841602022422
3.25953433e+02,3.79999973,-7.17608629e-10,3.08668338,3.66284162,1.74033561,-3.34509849,5.06825227e-05,5.72015887,-3.65465645,-1,-0.9999676255339554
3.34696755e+02,3.79999972,-7.09395160e-10,3.10898644,3.66929339,1.73858359,-3.34509849,6.97548766e-05,5.72149052,-3.65067654,-1,-0.9999576006729567
3.43178622e+02,3.79999971,-7.44225803e-10,3.13376665,3.67639856,1.73676336,-3.34509849,9.63535276e-05,5.72285404,-3.64660206,-1,-0.9999478755893232
3.59021352e+02,3.79999970,-7.75761213e-10,3.13001524,3.67674996,1.73418485,-3.34509847,1.02275978e-04,5.72537160,-3.63905888,-1,-0.9999297107354964
3.75601333e+02,3.79999969,-7.65555524e-10,3.12582571,3.67702818,1.73153366,-3.34509847,1.02659554e-04,5.72796284,-3.63129411,-1,-0.9999107005692363
3.92953588e+02,3.79999967,-7.55060715e-10,3.12151153,3.67731279,1.72880734,-3.34509847,1.03032586e-04,5.73062772,-3.62331032,-1,-0.9998908049341002
4.11060614e+02,3.79999966,-7.43723118e-10,3.11707434,3.67760286,1.72600859,-3.34509847,1.03312774e-04,5.73336350,-3.61511331,-1,-0.9998700438985636
4.29973758e+02,3.79999965,-7.31599498e-10,3.11251689,3.67790088,1.72313383,-3.34509847,1.03510330e-04,5.73617347,-3.60669338,-1,-0.9998483585895188
4.49837480e+02,3.79999963,-7.19045869e-10,3.10796227,3.67824411,1.72017006,-3.34509847,1.03766100e-04,5.73907005,-3.59801323,-1,-0.999825583372963
4.70598063e+02,3.79999962,-7.06317688e-10,3.10315277,3.67856320,1.71712714,-3.34509847,1.03934606e-04,5.74204468,-3.58909999,-1,-0.9998017798393831
4.92278608e+02,3.79999960,-6.93398303e-10,3.09827009,3.67890375,1.71400470,-3.34509847,1.04129089e-04,5.74509701,-3.57995422,-1,-0.9997769215017854
5.14901349e+02,3.79999959,-6.80362189e-10,3.09324037,3.67924681,1.71080373,-3.34509847,1.04308568e-04,5.74822623,-3.57057728,-1,-0.9997509828672556
5.38644326e+02,3.79999957,-6.67164517e-10,3.08803433,3.67959049,1.70751334,-3.34509847,1.04459731e-04,5.75144331,-3.56093612,-1,-0.999723759799854
5.63455194e+02,3.79999956,-6.54072453e-10,3.08269401,3.67994126,1.70414164,-3.34509847,1.04638073e-04,5.75473963,-3.55105634,-1,-0.9996953123169685
5.89319692e+02,3.79999954,-6.40832926e-10,3.07722884,3.68029966,1.70069225,-3.34509847,1.04804032e-04,5.75811239,-3.54094779,-1,-0.9996656567698834
6.16483917e+02,3.79999952,-6.27482540e-10,3.07159177,3.68066081,1.69715142,-3.34509847,1.04946094e-04,5.76157470,-3.53057066,-1,-0.9996345109903086
6.44819104e+02,3.79999950,-6.14077730e-10,3.06599462,3.68107247,1.69352952,-3.34509847,1.05197855e-04,5.76511571,-3.51995819,-1,-0.9996020226167766
6.74463025e+02,3.79999949,-6.00696842e-10,3.06016900,3.68146973,1.68982219,-3.34509847,1.05399220e-04,5.76874074,-3.50909280,-1,-0.9995680336835677
7.05444357e+02,3.79999947,-5.87352418e-10,3.05416628,3.68186415,1.68603200,-3.34509847,1.05582664e-04,5.77244721,-3.49798377,-1,-0.9995325113103949
7.37869078e+02,3.79999945,-5.74080956e-10,3.04802429,3.68226615,1.68215699,-3.34509847,1.05776483e-04,5.77623678,-3.48662482,-1,-0.9994953339856953
7.71705078e+02,3.79999943,-5.60749922e-10,3.04179850,3.68268724,1.67820192,-3.34509847,1.05988849e-04,5.78010469,-3.47503238,-1,-0.9994565385259431
8.07177101e+02,3.79999941,-5.47441048e-10,3.03539735,3.68310857,1.67415870,-3.34509847,1.06175636e-04,5.78405937,-3.46317764,-1,-0.9994158672456313
8.44172573e+02,3.79999939,-5.34181604e-10,3.02885385,3.68353317,1.67003773,-3.34509847,1.06353786e-04,5.78809036,-3.45109501,-1,-0.9993734492191213
8.82895910e+02,3.79999937,-5.20854041e-10,3.02235882,3.68401346,1.66582964,-3.34509847,1.06632654e-04,5.79220602,-3.43875773,-1,-0.9993290500684517
9.23406277e+02,3.79999935,-5.07917741e-10,3.01559420,3.68446792,1.66153841,-3.34509847,1.06888056e-04,5.79640421,-3.42617372,-1,-0.9992826019566035
9.65722775e+02,3.79999933,-4.94994618e-10,3.00876693,3.68494701,1.65716660,-3.34509847,1.07175751e-04,5.80068127,-3.41335140,-1,-0.9992340829828767
1.00992526e+03,3.79999931,-4.82102898e-10,3.00172616,3.68541210,1.65271602,-3.34509847,1.07393741e-04,5.80503579,-3.40029764,-1,-0.9991834015865011
1.05614817e+03,3.79999929,-4.69377962e-10,2.99454707,3.68588252,1.64818564,-3.34509847,1.07618313e-04,5.80946885,-3.38700745,-1,-0.999130403624433
1.10452249e+03,3.79999926,-4.56642650e-10,2.98723460,3.68635999,1.64357447,-3.34509847,1.07809894e-04,5.81398104,-3.37348056,-1,-0.999074938912747
1.15507162e+03,3.79999924,-4.44105816e-10,2.97981058,3.68684810,1.63888624,-3.34509847,1.08026600e-04,5.81856892,-3.35972456,-1,-0.9990169806216244
1.20789571e+03,3.79999922,-4.31670172e-10,2.97226492,3.68734405,1.63412152,-3.34509847,1.08232777e-04,5.82323213,-3.34574200,-1,-0.9989564139217324
1.26310590e+03,3.79999919,-4.19430267e-10,2.96457598,3.68784174,1.62928167,-3.34509847,1.08434237e-04,5.82796944,-3.33153698,-1,-0.9988931113828963
1.32081326e+03,3.79999917,-4.07272409e-10,2.95682112,3.68836077,1.62436617,-3.34509847,1.08652289e-04,5.83278109,-3.31711067,-1,-0.9988269456552011
1.38112469e+03,3.79999915,-3.95155407e-10,2.94883355,3.68885819,1.61937756,-3.34509847,1.08756208e-04,5.83766485,-3.30246939,-1,-0.9987577941699438
1.44418773e+03,3.79999912,-3.83443436e-10,2.94099982,3.68943267,1.61431172,-3.34509847,1.09108121e-04,5.84262401,-3.28759906,-1,-0.9986854877616753
1.51006181e+03,3.79999910,-3.71898095e-10,2.93283676,3.68995948,1.60917657,-3.34509847,1.09307398e-04,5.84765186,-3.27252563,-1,-0.9986099582895345
1.57888717e+03,3.79999907,-3.60321740e-10,2.92456590,3.69049421,1.60397168,-3.34509847,1.09439530e-04,5.85274878,-3.25724288,-1,-0.9985310449580587
1.65092834e+03,3.79999905,-3.48842143e-10,2.91621938,3.69104682,1.59869321,-3.34509847,1.09562709e-04,5.85791815,-3.24174058,-1,-0.9984484444641692
1.72612062e+03,3.79999902,-3.37778764e-10,2.90775580,3.69160329,1.59334847,-3.34509847,1.09740421e-04,5.86315328,-3.22604355,-1,-0.9983622309911695
1.80476241e+03,3.79999900,-3.26989953e-10,2.89919557,3.69217010,1.58793475,-3.34509847,1.09943127e-04,5.86845619,-3.21013967,-1,-0.9982720624015373
1.88697842e+03,3.79999897,-3.17270522e-10,2.89050117,3.69273181,1.58246411,-3.34509847,1.10405258e-04,5.87381585,-3.19406763,-1,-0.9981777957060962
1.97290485e+03,3.79999894,-3.07192509e-10,2.88179836,3.69332312,1.57693009,-3.34509847,1.10738287e-04,5.87923791,-3.17780782,-1,-0.9980792747415401
2.06264145e+03,3.79999892,-2.97169773e-10,2.87289974,3.69389520,1.57133661,-3.34509847,1.10945137e-04,5.88471882,-3.16137228,-1,-0.9979763851371659
2.15636460e+03,3.79999889,-2.87316197e-10,2.86388864,3.69446840,1.56568468,-3.34509847,1.11115772e-04,5.89025767,-3.14476221,-1,-0.9978689246603459
2.25446286e+03,3.79999886,-2.77707923e-10,2.85477579,3.69504607,1.55997290,-3.34509847,1.11282134e-04,5.89585564,-3.12797305,-1,-0.9977564477984947
2.35697754e+03,3.79999883,-2.68311741e-10,2.84581532,3.69569168,1.55420145,-3.34509847,1.11608479e-04,5.90146542,-3.11109605,-1,-0.9976389071866625
2.46395688e+03,3.79999881,-2.59136193e-10,2.83654566,3.69628582,1.54837834,-3.34509847,1.11773883e-04,5.90711557,-3.09408154,-1,-0.9975162475141451
2.57591369e+03,3.79999878,-2.50300002e-10,2.82716415,3.69688063,1.54249796,-3.34509847,1.11967838e-04,5.91287978,-3.07679169,-1,-0.9973878808066045
2.69284237e+03,3.79999875,-2.41604845e-10,2.81774563,3.69749154,1.53656689,-3.34509847,1.12149397e-04,5.91868876,-3.05936126,-1,-0.9972538134848518
2.81494735e+03,3.79999872,-2.33094995e-10,2.80822622,3.69810294,1.53058439,-3.34509847,1.12293748e-04,5.92455278,-3.04176871,-1,-0.9971138111548735
2.94270879e+03,3.79999869,-2.24884759e-10,2.79859801,3.69871260,1.52455096,-3.34509847,1.12444729e-04,5.93047078,-3.02401965,-1,-0.9969673232779551
3.07603235e+03,3.79999866,-2.16820124e-10,2.78886297,3.69931825,1.51847214,-3.34509847,1.12527730e-04,5.93643250,-3.00613958,-1,-0.9968144580218371
3.21554282e+03,3.79999863,-2.09026487e-10,2.77915732,3.69995656,1.51234268,-3.34509847,1.12699348e-04,5.94244489,-2.98810906,-1,-0.9966544990188845
3.36117344e+03,3.79999860,-2.01477782e-10,2.76931565,3.70058269,1.50616959,-3.34509847,1.12834126e-04,5.94850200,-2.96994185,-1,-0.9964875228143417
3.51346172e+03,3.79999857,-1.94142882e-10,2.75937273,3.70120476,1.49995400,-3.34509847,1.12931347e-04,5.95460076,-2.95164915,-1,-0.9963129131135059
3.67247959e+03,3.79999854,-1.86980674e-10,2.74937969,3.70183487,1.49369725,-3.34509847,1.13007360e-04,5.96074085,-2.93323092,-1,-0.9961305874433476
3.83875383e+03,3.79999851,-1.80052017e-10,2.73926632,3.70245561,1.48739910,-3.34509847,1.13046890e-04,5.96692328,-2.91468727,-1,-0.9959399418118972
4.01234510e+03,3.79999848,-1.73274400e-10,2.72920129,3.70310874,1.48106032,-3.34509847,1.13118499e-04,5.97314599,-2.89602275,-1,-0.9957409066680081
4.19395877e+03,3.79999845,-1.66793198e-10,2.71899822,3.70374677,1.47468273,-3.34509847,1.13184264e-04,5.97940817,-2.87724194,-1,-0.9955326732531556
4.38360305e+03,3.79999842,-1.60477754e-10,2.70870215,3.70437944,1.46826934,-3.34509847,1.13191223e-04,5.98570678,-2.85834852,-1,-0.9953152321539717
4.58163505e+03,3.79999839,-1.54407802e-10,2.69829953,3.70500264,1.46182163,-3.34509847,1.13190501e-04,5.99203993,-2.83935159,-1,-0.9950881739176063
4.78878961e+03,3.79999836,-1.48507809e-10,2.68802641,3.70567745,1.45533546,-3.34509847,1.13286956e-04,5.99841121,-2.82024122,-1,-0.9948506559960145
5.00523195e+03,3.79999833,-1.42887128e-10,2.67755747,3.70631777,1.44882035,-3.34509847,1.13342132e-04,6.00481164,-2.80103796,-1,-0.9946024889523286
5.23127404e+03,3.79999830,-1.37389912e-10,2.66705264,3.70696472,1.44227404,-3.34509847,1.13350773e-04,6.01123623,-2.78173837,-1,-0.9943433150900247
5.46738054e+03,3.79999826,-1.32068679e-10,2.65646170,3.70760496,1.43569808,-3.34509847,1.13320924e-04,6.01763099,-2.76227700,-1,-0.9940726016422768
5.71430728e+03,3.79999823,-1.26918647e-10,2.64581262,3.70824477,1.42909392,-3.34509847,1.13261529e-04,6.02399234,-2.74265354,-1,-0.993789481994463
5.97219435e+03,3.79999820,-1.21960362e-10,2.63511238,3.70888485,1.42246364,-3.34509847,1.13203628e-04,6.03032164,-2.72286078,-1,-0.9934937955231066
6.24159319e+03,3.79999817,-1.17160692e-10,2.62443842,3.70954438,1.41580760,-3.34509847,1.13168691e-04,6.03662240,-2.70290476,-1,-0.9931849099617363
6.52310986e+03,3.79999814,-1.12565859e-10,2.61371161,3.71020283,1.40912730,-3.34509847,1.13153121e-04,6.04289767,-2.68278480,-1,-0.9928621304180378
6.81737957e+03,3.79999810,-1.08126091e-10,2.60287355,3.71084331,1.40242730,-3.34509847,1.13065979e-04,6.04914058,-2.66249708,-1,-0.9925247285770811
7.12483230e+03,3.79999807,-1.03827882e-10,2.59209686,3.71150943,1.39570673,-3.34509847,1.13014549e-04,6.05536298,-2.64205030,-1,-0.9921722114352073
7.44594912e+03,3.79999804,-9.97178039e-11,2.58120125,3.71215343,1.38897092,-3.34509847,1.12928941e-04,6.06156248,-2.62144751,-1,-0.99180402741032
7.78141120e+03,3.79999801,-9.57349663e-11,2.57029932,3.71280340,1.38222001,-3.34509847,1.12821156e-04,6.06774103,-2.60068846,-1,-0.9914193954909722
8.13197307e+03,3.79999797,-9.19125859e-11,2.55934193,3.71344572,1.37545667,-3.34509847,1.12696089e-04,6.07390266,-2.57977703,-1,-0.9910174505530875
8.49855399e+03,3.79999794,-8.82329258e-11,2.54847882,3.71411756,1.36868143,-3.34509847,1.12633353e-04,6.08005020,-2.55871588,-1,-0.990597138597543
8.88148770e+03,3.79999791,-8.47247729e-11,2.53756171,3.71478047,1.36189706,-3.34509847,1.12578383e-04,6.08618788,-2.53751396,-1,-0.9901580769669102
9.28154143e+03,3.79999788,-8.13242235e-11,2.52661408,3.71543843,1.35510734,-3.34509847,1.12469642e-04,6.09232029,-2.51617882,-1,-0.9896993859756299
9.69949040e+03,3.79999784,-7.80616912e-11,2.51561687,3.71608555,1.34831450,-3.34509847,1.12331753e-04,6.09845159,-2.49471662,-1,-0.9892201767770208
1.01361580e+04,3.79999781,-7.49312905e-11,2.50461146,3.71673026,1.34152235,-3.34509847,1.12188645e-04,6.10458080,-2.47314125,-1,-0.9887195052939578
1.05925783e+04,3.79999778,-7.19366013e-11,2.49374268,3.71740964,1.33472921,-3.34509847,1.12145307e-04,6.11071962,-2.45146033,-1,-0.9881961858892182
1.10697196e+04,3.79999774,-6.90672846e-11,2.48281814,3.71807210,1.32794201,-3.34509847,1.12060352e-04,6.11686988,-2.42969681,-1,-0.9876491083357162
1.15683198e+04,3.79999771,-6.63105907e-11,2.47183865,3.71871470,1.32116707,-3.34509847,1.11915357e-04,6.12303142,-2.40787782,-1,-0.9870774265768921
1.20893446e+04,3.79999768,-6.36571323e-11,2.46089730,3.71936001,1.31440579,-3.34509847,1.11759536e-04,6.12920820,-2.38601367,-1,-0.986480033366751
1.26338347e+04,3.79999764,-6.11071883e-11,2.45000733,3.72001000,1.30766082,-3.34509847,1.11598882e-04,6.13541046,-2.36413340,-1,-0.9858557354662882
1.32027965e+04,3.79999761,-5.86892594e-11,2.43910332,3.72064391,1.30094099,-3.34509847,1.11444150e-04,6.14163788,-2.34228015,-1,-0.9852033789639689
1.37973825e+04,3.79999757,-5.63631006e-11,2.42824592,3.72127473,1.29425065,-3.34509847,1.11260979e-04,6.14789831,-2.32047565,-1,-0.9845216424338749
1.44192459e+04,3.79999754,-5.41400714e-11,2.41752539,3.72192331,1.28759323,-3.34509847,1.11125923e-04,6.15423932,-2.29866583,-1,-0.9838086303607543
1.50694611e+04,3.79999751,-5.20279705e-11,2.40679058,3.72254646,1.28097953,-3.34509847,1.10957259e-04,6.16055121,-2.27708119,-1,-0.9830631108660767
1.57491366e+04,3.79999747,-5.00027077e-11,2.39613278,3.72316403,1.27441547,-3.34509847,1.10763897e-04,6.16687703,-2.25567882,-1,-0.9822838129731564
1.64596068e+04,3.79999744,-4.80726530e-11,2.38555678,3.72377349,1.26790856,-3.34509847,1.10563903e-04,6.17319946,-2.23447220,-1,-0.981469206694362
1.72022180e+04,3.79999740,-4.62330320e-11,2.37506815,3.72437198,1.26146728,-3.34509847,1.10348561e-04,6.17948572,-2.21347037,-1,-0.9806177483978381
1.79794967e+04,3.79999737,-4.44872214e-11,2.36478005,3.72498521,1.25509677,-3.34509847,1.10192951e-04,6.18578461,-2.19247766,-1,-0.979726541265726
1.87921772e+04,3.79999733,-4.28205538e-11,2.35452205,3.72556584,1.24880650,-3.34509847,1.09959281e-04,6.19186876,-2.17179162,-1,-0.9787947433691306
1.96417676e+04,3.79999730,-4.12408628e-11,2.34443661,3.72614883,1.24259779,-3.34509847,1.09763504e-04,6.19777011,-2.15117331,-1,-0.9778206255606097
2.05301387e+04,3.79999726,-3.97453282e-11,2.33446062,3.72671526,1.23647694,-3.34509847,1.09563469e-04,6.20341350,-2.13053835,-1,-0.9768020428305255
2.14598070e+04,3.79999722,-3.83190539e-11,2.32462371,3.72727291,1.23044318,-3.34509847,1.09346073e-04,6.20876670,-2.10972099,-1,-0.9757361098267542
2.24312326e+04,3.79999719,-3.69630302e-11,2.31505906,3.72785956,1.22448757,-3.34509847,1.09224771e-04,6.21383800,-2.08859943,-1,-0.9746222990108444
2.34477179e+04,3.79999715,-3.56767412e-11,2.30551948,3.72841184,1.21861320,-3.34509847,1.09050920e-04,6.21850375,-2.06729514,-1,-0.9734568239385865
2.45098609e+04,3.79999712,-3.44473015e-11,2.29611241,3.72896063,1.21281211,-3.34509847,1.08878713e-04,6.22309918,-2.04540145,-1,-0.9722389989590483
2.56202926e+04,3.79999708,-3.32742731e-11,2.28683955,3.72950863,1.20707966,-3.34509848,1.08721860e-04,6.22761287,-2.02301119,-1,-0.9709658074374443
2.67814065e+04,3.79999704,-3.21520518e-11,2.27769701,3.73005636,1.20141294,-3.34509848,1.08572426e-04,6.23212753,-2.00011260,-1,-0.9696345050501868
2.79946297e+04,3.79999700,-3.10830300e-11,2.26866688,3.73060084,1.19580891,-3.34509848,1.08444147e-04,6.23670925,-1.97675590,-1,-0.968243455522284
2.92639008e+04,3.79999696,-3.00620681e-11,2.25979855,3.73115453,1.19026737,-3.34509848,1.08354764e-04,6.24142044,-1.95295764,-1,-0.966788142959488
3.05896257e+04,3.79999692,-2.90830004e-11,2.25110604,3.73172305,1.18478408,-3.34509848,1.08307323e-04,6.24628887,-1.92873421,-1,-0.9652681019676294
3.19772632e+04,3.79999688,-2.81590010e-11,2.24252133,3.73228568,1.17936646,-3.34509848,1.08304541e-04,6.25133902,-1.90409272,-1,-0.9636770736314789
3.34261190e+04,3.79999685,-2.72735324e-11,2.23408990,3.73285493,1.17401225,-3.34509848,1.08330214e-04,6.25656927,-1.87905616,-1,-0.9620158540169932
3.49426982e+04,3.79999680,-2.64290165e-11,2.22582306,3.73343046,1.16872775,-3.34509848,1.08391087e-04,6.26198976,-1.85359456,-1,-0.9602769845491268
3.65271822e+04,3.79999676,-2.56248444e-11,2.21780643,3.73403492,1.16351053,-3.34509848,1.08551662e-04,6.26762267,-1.82766126,-1,-0.9584602572394534
3.81836518e+04,3.79999672,-2.48616230e-11,2.20990574,3.73463111,1.15836780,-3.34509848,1.08733108e-04,6.27348063,-1.80121769,-1,-0.956560993150978
3.99164509e+04,3.79999668,-2.41353406e-11,2.20223428,3.73524446,1.15330537,-3.34509848,1.08983004e-04,6.27947700,-1.77443505,-1,-0.9545742116832272
4.17264974e+04,3.79999664,-2.34449458e-11,2.19476415,3.73586650,1.14832623,-3.34509848,1.09287061e-04,6.28565777,-1.74725553,-1,-0.9524988603964177
4.36209076e+04,3.79999659,-2.27900808e-11,2.18751228,3.73649498,1.14344332,-3.34509848,1.09639433e-04,6.29203419,-1.71963846,-1,-0.9503267799298027
4.56011315e+04,3.79999655,-2.21746690e-11,2.18053042,3.73714033,1.13866171,-3.34509848,1.10092823e-04,6.29860201,-1.69156150,-1,-0.9480563077518583
4.76701309e+04,3.79999650,-2.15913157e-11,2.17381806,3.73779748,1.13399121,-3.34509848,1.10607574e-04,6.30536534,-1.66300745,-1,-0.9456840479412967
4.98359841e+04,3.79999646,-2.10495430e-11,2.16753255,3.73849916,1.12944511,-3.34509848,1.11309420e-04,6.31234442,-1.63393547,-1,-0.9432007381336976
5.20999593e+04,3.79999641,-2.05415162e-11,2.16151503,3.73919614,1.12504239,-3.34509848,1.12051408e-04,6.31953316,-1.60435025,-1,-0.9406049242445934
5.44660914e+04,3.79999636,-2.00699251e-11,2.15590960,3.73991577,1.12080042,-3.34509848,1.12917182e-04,6.32693912,-1.57424303,-1,-0.9378919799647112
5.69410385e+04,3.79999631,-1.96374915e-11,2.15076813,3.74065785,1.11674553,-3.34509848,1.13920126e-04,6.33456998,-1.54357412,-1,-0.9350542712932653
5.95302633e+04,3.79999626,-1.92459651e-11,2.14614902,3.74142126,1.11290914,-3.34509848,1.15073804e-04,6.34243163,-1.51230692,-1,-0.9320855348433903
6.22365389e+04,3.79999621,-1.88945680e-11,2.14211987,3.74220790,1.10932128,-3.34509848,1.16379431e-04,6.35053705,-1.48043072,-1,-0.9289825910522109
6.50655183e+04,3.79999616,-1.85939478e-11,2.13880149,3.74302701,1.10602387,-3.34509848,1.17924991e-04,6.35889985,-1.44791538,-1,-0.9257389583399314
6.80234873e+04,3.79999611,-1.83434793e-11,2.13630753,3.74388041,1.10307011,-3.34509848,1.19709724e-04,6.36753570,-1.41472399,-1,-0.9223474295750669
7.11168501e+04,3.79999605,-1.81505480e-11,2.13478441,3.74477259,1.10052417,-3.34509848,1.21787138e-04,6.37647236,-1.38081671,-1,-0.9188006618718347
7.43475805e+04,3.79999599,-1.80221823e-11,2.13441933,3.74571824,1.09845034,-3.34509848,1.24237178e-04,6.38571975,-1.34618011,-1,-0.9150963921235304
7.77202288e+04,3.79999593,-1.79699398e-11,2.13536520,3.74671226,1.09693524,-3.34509848,1.27114427e-04,6.39529053,-1.31075893,-1,-0.9112294030769172
8.12383481e+04,3.79999587,-1.80052238e-11,2.13786942,3.74776034,1.09609118,-3.34509848,1.30492267e-04,6.40521003,-1.27452375,-1,-0.9071956208418178
8.49028243e+04,3.79999580,-1.81499743e-11,2.14226007,3.74888386,1.09603947,-3.34509848,1.34559187e-04,6.41550148,-1.23745545,-1,-0.9029940296687997
8.87104844e+04,3.79999573,-1.84271144e-11,2.14883444,3.75009204,1.09691029,-3.34509848,1.39481181e-04,6.42617622,-1.19954277,-1,-0.8986282676354664
9.26536849e+04,3.79999566,-1.88634257e-11,2.15787560,3.75139947,1.09881601,-3.34509849,1.45477620e-04,6.43724086,-1.16080967,-1,-0.8941070985760957
9.67221554e+04,3.79999558,-1.94891810e-11,2.16968169,3.75282708,1.10186384,-3.34509849,1.52821368e-04,6.44871629,-1.12131715,-1,-0.8894422982587994
1.00902412e+05,3.79999550,-2.03304281e-11,2.18431260,3.75440052,1.10603242,-3.34509849,1.61840332e-04,6.46060008,-1.08112124,-1,-0.8846493269655186
1.05186579e+05,3.79999541,-2.13846495e-11,2.20136894,3.75613851,1.11108460,-3.34509849,1.72762450e-04,6.47289935,-1.04021396,-1,-0.8797372147648893
