star_age,star_mass,star_mdot,log_L,log_Teff,log_R,log_surf_z,v_wind_Km_per_s,log_center_T,log_center_Rho,phase,x
2.01264993e+02,5.99999961,-1.65948839e-09,3.45871759,3.66019757,1.93164081,-3.34509848,6.19933862e-05,5.71534629,-4.03536386,-1,-1.0
2.10107953e+02,5.99999960,-1.63989250e-09,3.45551336,3.66035144,1.92973094,-3.34509848,6.18914674e-05,5.71723472,-4.02970067,-1,-0.9999730579740004
2.19325849e+02,5.99999958,-1.61998391e-09,3.45220555,3.66050845,1.92776303,-3.34509848,6.17865191e-05,5.71918066,-4.02386708,-1,-0.9999449736228676
2.28941343e+02,5.99999957,-1.59977043e-09,3.44898041,3.66071697,1.92573342,-3.34509848,6.17331263e-05,5.72118680,-4.01785265,-1,-0.9999156779018255
2.33629096e+02,5.99999956,-1.58457183e-09,3.47542745,3.66809758,1.92419572,-3.34509848,8.84359649e-05,5.72223129,-4.01473890,-1,-0.9999013956294636
2.39797510e+02,5.99999955,-1.73345665e-09,3.49505949,3.67391097,1.92238496,-3.34509848,1.20629719e-04,5.72365830,-4.01047635,-1,-0.9998826021971327
2.50304126e+02,5.99999953,-1.73169105e-09,3.49156484,3.67425164,1.91995630,-3.34509847,1.22648207e-04,5.72605840,-4.00328131,-1,-0.9998505914765776
2.61266186e+02,5.99999951,-1.71040982e-09,3.48766693,3.67452323,1.91746416,-3.34509847,1.23127991e-04,5.72852368,-3.99588774,-1,-0.9998171931455291
2.72707998e+02,5.99999950,-1.68867924e-09,3.48366323,3.67480193,1.91490492,-3.34509847,1.23610564e-04,5.73105512,-3.98829776,-1,-0.9997823331443093
2.84660616e+02,5.99999948,-1.66554211e-09,3.47954859,3.67508800,1.91227546,-3.34509847,1.24025112e-04,5.73365565,-3.98049878,-1,-0.9997459168600652
2.97120553e+02,5.99999945,-1.64059098e-09,3.47532883,3.67538221,1.90957715,-3.34509847,1.24339022e-04,5.73632418,-3.97249503,-1,-0.9997079549167106
3.10112256e+02,5.99999943,-1.61444303e-09,3.47099329,3.67568281,1.90680817,-3.34509847,1.24586477e-04,5.73906263,-3.96428234,-1,-0.9996683728310736
3.23658857e+02,5.99999941,-1.58756781e-09,3.46653500,3.67598858,1.90396748,-3.34509847,1.24795832e-04,5.74187185,-3.95585569,-1,-0.9996271001264194
3.37781654e+02,5.99999939,-1.56060646e-09,3.46200932,3.67631379,1.90105423,-3.34509847,1.25059264e-04,5.74475256,-3.94721442,-1,-0.9995840719136987
3.52541158e+02,5.99999937,-1.53335111e-09,3.45731114,3.67663416,1.89806440,-3.34509847,1.25280702e-04,5.74770902,-3.93834696,-1,-0.9995391038328175
3.67969719e+02,5.99999934,-1.50590791e-09,3.45249813,3.67696473,1.89499675,-3.34509847,1.25516207e-04,5.75074260,-3.92924899,-1,-0.9994920973223732
3.84033628e+02,5.99999932,-1.47758834e-09,3.44755732,3.67729906,1.89185769,-3.34509847,1.25682958e-04,5.75384666,-3.91993962,-1,-0.9994431550842615
4.00763965e+02,5.99999930,-1.44810830e-09,3.44267017,3.67768467,1.88864290,-3.34509847,1.25903258e-04,5.75702465,-3.91040741,-1,-0.9993921824264144
4.18283017e+02,5.99999927,-1.41962099e-09,3.43749411,3.67803948,1.88534525,-3.34509847,1.26098816e-04,5.76028552,-3.90062891,-1,-0.999338806774543
4.36521177e+02,5.99999925,-1.39148596e-09,3.43220527,3.67840210,1.88197559,-3.34509847,1.26336916e-04,5.76361762,-3.89063672,-1,-0.9992832402017094
4.55552775e+02,5.99999922,-1.36345301e-09,3.42679334,3.67877199,1.87852983,-3.34509847,1.26593261e-04,5.76702453,-3.88041674,-1,-0.9992252562451914
4.75438210e+02,5.99999919,-1.33568965e-09,3.42129478,3.67915962,1.87500530,-3.34509847,1.26913392e-04,5.77050939,-3.86996483,-1,-0.999164670886128
4.96141075e+02,5.99999917,-1.30764859e-09,3.41568919,3.67955676,1.87140823,-3.34509847,1.27220407e-04,5.77406587,-3.85929781,-1,-0.9991015950464662
5.17750396e+02,5.99999914,-1.27990030e-09,3.40990901,3.67994858,1.86773449,-3.34509847,1.27518000e-04,5.77769814,-3.84840429,-1,-0.999035757488882
5.40321967e+02,5.99999911,-1.25144858e-09,3.40404006,3.68035716,1.86398286,-3.34509847,1.27773124e-04,5.78140685,-3.83728084,-1,-0.9989669882246612
5.63846144e+02,5.99999908,-1.22279796e-09,3.39805548,3.68077460,1.86015570,-3.34509847,1.28009228e-04,5.78519001,-3.82593467,-1,-0.9988953166363749
5.88383022e+02,5.99999905,-1.19460618e-09,3.39191844,3.68119163,1.85625311,-3.34509847,1.28257813e-04,5.78904745,-3.81436474,-1,-0.9988205596313647
6.13982267e+02,5.99999902,-1.16676320e-09,3.38571021,3.68162877,1.85227472,-3.34509847,1.28575258e-04,5.79297935,-3.80257261,-1,-0.9987425658912189
6.40685840e+02,5.99999899,-1.13943722e-09,3.37941317,3.68208153,1.84822067,-3.34509847,1.28964580e-04,5.79698548,-3.79055654,-1,-0.9986612075725056
6.68536271e+02,5.99999896,-1.11195211e-09,3.37290671,3.68251826,1.84409399,-3.34509847,1.29245817e-04,5.80106371,-3.77832301,-1,-0.9985763550982095
6.97591615e+02,5.99999893,-1.08472608e-09,3.36643223,3.68300056,1.83989216,-3.34509847,1.29663198e-04,5.80521543,-3.76586938,-1,-0.9984878315909818
7.27885252e+02,5.99999890,-1.05768200e-09,3.35980259,3.68348095,1.83561654,-3.34509847,1.30051668e-04,5.80944054,-3.75319571,-1,-0.9983955353512978
7.59470678e+02,5.99999886,-1.03109914e-09,3.35296030,3.68394334,1.83127063,-3.34509847,1.30390329e-04,5.81373544,-3.74031264,-1,-0.9982993033918068
7.92443137e+02,5.99999883,-1.00523157e-09,3.34600722,3.68441365,1.82685346,-3.34509847,1.30793792e-04,5.81810075,-3.72721915,-1,-0.998198845530678
8.26816647e+02,5.99999880,-9.80638026e-10,3.33896350,3.68489405,1.82237081,-3.34509847,1.31347517e-04,5.82253091,-3.71392950,-1,-0.9980941190589855
8.62701910e+02,5.99999876,-9.54803650e-10,3.33179389,3.68537788,1.81781833,-3.34509847,1.31691655e-04,5.82702984,-3.70043454,-1,-0.9979847866986957
9.00117764e+02,5.99999873,-9.29266229e-10,3.32450319,3.68586497,1.81319880,-3.34509847,1.32026046e-04,5.83159515,-3.68674185,-1,-0.9978707910556911
9.39126902e+02,5.99999869,-9.03859403e-10,3.31713040,3.68636500,1.80851234,-3.34509847,1.32354840e-04,5.83622603,-3.67285152,-1,-0.9977519411219339
9.79799860e+02,5.99999865,-8.78547550e-10,3.30967663,3.68687860,1.80375826,-3.34509847,1.32672261e-04,5.84092362,-3.65876113,-1,-0.9976280219939591
1.02221930e+03,5.99999862,-8.53954329e-10,3.30211205,3.68739768,1.79893782,-3.34509847,1.33041467e-04,5.84568665,-3.64447340,-1,-0.9974987818237708
1.06645283e+03,5.99999858,-8.29657759e-10,3.29441707,3.68791601,1.79405367,-3.34509847,1.33376547e-04,5.85051273,-3.62999678,-1,-0.9973640146287011
1.11258877e+03,5.99999854,-8.05753426e-10,3.28669662,3.68846069,1.78910409,-3.34509847,1.33780704e-04,5.85540274,-3.61532618,-1,-0.9972234513224105
1.16069776e+03,5.99999851,-7.82201046e-10,3.27878472,3.68898917,1.78409117,-3.34509847,1.34104041e-04,5.86032683,-3.60043222,-1,-0.997076876684575
1.21087155e+03,5.99999847,-7.58973231e-10,3.27080749,3.68953083,1.77901924,-3.34509847,1.34433780e-04,5.86528296,-3.58533347,-1,-0.9969240111786044
1.26319339e+03,5.99999843,-7.36245538e-10,3.26268651,3.69006587,1.77388868,-3.34509847,1.34734412e-04,5.87025553,-3.57000050,-1,-0.9967646011650313
1.31777562e+03,5.99999839,-7.13982171e-10,3.25468645,3.69066219,1.76869600,-3.34509847,1.35228930e-04,5.87524666,-3.55442544,-1,-0.996598304375294
1.37467389e+03,5.99999835,-6.92201604e-10,3.24641966,3.69121949,1.76344801,-3.34509847,1.35581706e-04,5.88025485,-3.53861732,-1,-0.9964249512594061
1.43400122e+03,5.99999831,-6.70780962e-10,3.23806605,3.69178418,1.75814182,-3.34509847,1.35922891e-04,5.88528302,-3.52256335,-1,-0.9962441974770362
1.49586208e+03,5.99999827,-6.49901725e-10,3.22967037,3.69236348,1.75278537,-3.34509847,1.36311753e-04,5.89032147,-3.50629349,-1,-0.9960557247373113
1.56034363e+03,5.99999823,-6.29313488e-10,3.22117115,3.69294261,1.74737751,-3.34509847,1.36646601e-04,5.89537752,-3.48979291,-1,-0.9958592674880878
1.62756084e+03,5.99999819,-6.09401659e-10,3.21255885,3.69351749,1.74192161,-3.34509847,1.36994466e-04,5.90044905,-3.47306699,-1,-0.9956544754479293
1.69770455e+03,5.99999814,-5.89842472e-10,3.20387947,3.69409935,1.73641818,-3.34509847,1.37319311e-04,5.90553680,-3.45610705,-1,-0.9954407671807284
1.77087325e+03,5.99999810,-5.70754147e-10,3.19521549,3.69470913,1.73086663,-3.34509847,1.37719389e-04,5.91064419,-3.43890950,-1,-0.9952178426149997
1.84712405e+03,5.99999806,-5.52132583e-10,3.18639683,3.69530105,1.72527347,-3.34509847,1.38040253e-04,5.91576610,-3.42149016,-1,-0.9949855277525453
1.92658514e+03,5.99999802,-5.33962827e-10,3.17749586,3.69589251,1.71964007,-3.34509847,1.38337042e-04,5.92090390,-3.40384481,-1,-0.9947434320342863
2.00945196e+03,5.99999797,-5.16309811e-10,3.16854356,3.69649122,1.71396649,-3.34509847,1.38652375e-04,5.92596134,-3.38611460,-1,-0.9944909600092016
2.09595502e+03,5.99999793,-4.99032746e-10,3.15968889,3.69713683,1.70824795,-3.34509847,1.39081579e-04,5.93111666,-3.36798543,-1,-0.9942274093777881
2.18605808e+03,5.99999789,-4.82416322e-10,3.15063257,3.69774709,1.70249927,-3.34509847,1.39428275e-04,5.93630116,-3.34966052,-1,-0.9939528905531907
2.27996142e+03,5.99999784,-4.66227820e-10,3.14150492,3.69835505,1.69671950,-3.34509847,1.39741081e-04,5.94150875,-3.33112089,-1,-0.9936667933382617
2.37799068e+03,5.99999780,-4.50357730e-10,3.13233027,3.69896612,1.69091005,-3.34509847,1.39999003e-04,5.94673206,-3.31235710,-1,-0.9933681255989933
2.48006907e+03,5.99999775,-4.34311234e-10,3.12311160,3.69958045,1.68507206,-3.34509847,1.40049207e-04,5.95197337,-3.29336381,-1,-0.9930571212930397
2.58661525e+03,5.99999771,-4.18857117e-10,3.11406017,3.70025518,1.67919688,-3.34509847,1.40316699e-04,5.95724317,-3.27411187,-1,-0.9927325048804678
2.69762605e+03,5.99999766,-4.04480896e-10,3.10473921,3.70087273,1.67330130,-3.34509847,1.40580822e-04,5.96252967,-3.25464393,-1,-0.9923942860193811
2.81339101e+03,5.99999762,-3.90526328e-10,3.09543823,3.70150588,1.66738451,-3.34509847,1.40873349e-04,5.96783631,-3.23494853,-1,-0.9920415825623756
2.93411805e+03,5.99999757,-3.77089616e-10,3.08607625,3.70213231,1.66145066,-3.34509847,1.41158088e-04,5.97316539,-3.21503959,-1,-0.9916737610353605
3.06002218e+03,5.99999752,-3.64818789e-10,3.07670096,3.70276064,1.65550636,-3.34509847,1.41719398e-04,5.97851200,-3.19492476,-1,-0.9912901663629979
3.19129265e+03,5.99999748,-3.52415624e-10,3.06730236,3.70338715,1.64955403,-3.34509847,1.42059530e-04,5.98387378,-3.17460303,-1,-0.9908902219534655
3.32813600e+03,5.99999743,-3.40155943e-10,3.05790353,3.70401844,1.64359204,-3.34509847,1.42297925e-04,5.98925507,-3.15406455,-1,-0.9904732985371467
3.47083521e+03,5.99999738,-3.28351835e-10,3.04858050,3.70467305,1.63762131,-3.34509847,1.42624137e-04,5.99466181,-3.13331312,-1,-0.9900385339531228
3.61964734e+03,5.99999734,-3.16941764e-10,3.03915156,3.70530270,1.63164754,-3.34509847,1.42852519e-04,6.00009127,-3.11233854,-1,-0.9895851450114659
3.77472756e+03,5.99999729,-3.05871776e-10,3.02974884,3.70594026,1.62567105,-3.34509847,1.43077503e-04,6.00554763,-3.09114815,-1,-0.9891126589525827
3.93655804e+03,5.99999724,-2.95204852e-10,3.02033757,3.70657478,1.61969639,-3.34509847,1.43290107e-04,6.01103141,-3.06973965,-1,-0.9886196067393321
4.10520698e+03,5.99999719,-2.84914587e-10,3.01104436,3.70723856,1.61372221,-3.34509847,1.43596096e-04,6.01654284,-3.04809851,-1,-0.9881057805853879
4.28116409e+03,5.99999714,-2.75076298e-10,3.00165364,3.70787387,1.60775622,-3.34509847,1.43842346e-04,6.02208474,-3.02624354,-1,-0.9875696884813376
4.46451077e+03,5.99999709,-2.65530221e-10,2.99230847,3.70851598,1.60179944,-3.34509847,1.44077935e-04,6.02765596,-3.00416281,-1,-0.9870110824241466
4.65584794e+03,5.99999704,-2.56341252e-10,2.98300505,3.70916232,1.59585503,-3.34509847,1.44323521e-04,6.03326261,-2.98185156,-1,-0.9864281315786347
4.85524532e+03,5.99999699,-2.47468275e-10,2.97370852,3.70980258,1.58992626,-3.34509847,1.44535140e-04,6.03890643,-2.95930748,-1,-0.9858206235274607
5.06329304e+03,5.99999694,-2.38983746e-10,2.96453463,3.71046342,1.58401762,-3.34509847,1.44846081e-04,6.04458938,-2.93655154,-1,-0.9851867603095568
5.28021590e+03,5.99999689,-2.30830237e-10,2.95536979,3.71111509,1.57813187,-3.34509847,1.45134119e-04,6.05031211,-2.91357215,-1,-0.9845258570221932
5.50636494e+03,5.99999684,-2.23000991e-10,2.94623089,3.71175959,1.57227341,-3.34509847,1.45409654e-04,6.05607638,-2.89036051,-1,-0.9838368441446655
5.74234123e+03,5.99999679,-2.15445539e-10,2.93716088,3.71240543,1.56644672,-3.34509847,1.45670631e-04,6.06188673,-2.86691586,-1,-0.9831178903847858
5.98821017e+03,5.99999674,-2.08182125e-10,2.92815243,3.71304925,1.56065486,-3.34509847,1.45930275e-04,6.06774505,-2.84324524,-1,-0.9823687964870443
6.24501257e+03,5.99999669,-2.01205340e-10,2.91935625,3.71372790,1.55489947,-3.34509847,1.46304232e-04,6.07366160,-2.81932128,-1,-0.9815863913944558
6.51260262e+03,5.99999663,-1.94603566e-10,2.91054549,3.71437988,1.54919013,-3.34509847,1.46670347e-04,6.07963374,-2.79516810,-1,-0.9807711193493114
6.79166929e+03,5.99999658,-1.88215836e-10,2.90182230,3.71502855,1.54353119,-3.34509847,1.46993141e-04,6.08566598,-2.77077594,-1,-0.9799208812527058
7.08293824e+03,5.99999653,-1.82129274e-10,2.89320670,3.71567568,1.53792914,-3.34509847,1.47346919e-04,6.09176306,-2.74613991,-1,-0.9790334662215655
7.38654938e+03,5.99999647,-1.76344992e-10,2.88473570,3.71632794,1.53238912,-3.34509847,1.47770773e-04,6.09792925,-2.72126928,-1,-0.9781084479892491
7.70337941e+03,5.99999642,-1.70782662e-10,2.87642564,3.71698625,1.52691748,-3.34509847,1.48204905e-04,6.10417341,-2.69615503,-1,-0.9771431554960442
8.03399780e+03,5.99999636,-1.65494398e-10,2.86830300,3.71765319,1.52152228,-3.34509847,1.48710485e-04,6.11049944,-2.67080095,-1,-0.9761358537261254
8.37870502e+03,5.99999631,-1.60443667e-10,2.86036292,3.71832552,1.51620758,-3.34509847,1.49257689e-04,6.11691641,-2.64520949,-1,-0.9750856272314352
8.73844073e+03,5.99999625,-1.55731133e-10,2.85256755,3.71898594,1.51098906,-3.34509847,1.49884507e-04,6.12342606,-2.61938602,-1,-0.9739896131307494
9.11389110e+03,5.99999619,-1.51195355e-10,2.84498902,3.71964807,1.50587552,-3.34509847,1.50495195e-04,6.13003930,-2.59333565,-1,-0.97284572085598
9.50536102e+03,5.99999614,-1.46907989e-10,2.83764973,3.72031342,1.50087518,-3.34509847,1.51173605e-04,6.13676014,-2.56707517,-1,-0.9716530214925658
9.91412352e+03,5.99999608,-1.42869565e-10,2.83055151,3.72097374,1.49600542,-3.34509847,1.51894161e-04,6.14360168,-2.54060685,-1,-0.9704076364741266
1.03407131e+04,5.99999602,-1.39077069e-10,2.82376546,3.72164091,1.49127806,-3.34509847,1.52704387e-04,6.15057412,-2.51395105,-1,-0.9691079373286468
1.07856577e+04,5.99999596,-1.35545915e-10,2.81739759,3.72233636,1.48670323,-3.34509847,1.53706943e-04,6.15768494,-2.48712824,-1,-0.9677523155705955
1.12504953e+04,5.99999589,-1.32262868e-10,2.81131249,3.72301343,1.48230654,-3.34509847,1.54731158e-04,6.16495094,-2.46015547,-1,-0.9663360854050417
1.17355264e+04,5.99999583,-1.29217056e-10,2.80561688,3.72369181,1.47810198,-3.34509847,1.55842364e-04,6.17239574,-2.43302187,-1,-0.9648583312925263
1.22415731e+04,5.99999577,-1.26429561e-10,2.80036536,3.72437420,1.47411144,-3.34509847,1.57082867e-04,6.17997291,-2.40590817,-1,-0.9633165485242671
1.27706086e+04,5.99999570,-1.23909231e-10,2.79562906,3.72506008,1.47037152,-3.34509848,1.58456054e-04,6.18772357,-2.37880339,-1,-0.9617047253117109
1.33223824e+04,5.99999563,-1.21649137e-10,2.79143105,3.72574913,1.46689441,-3.34509848,1.59970590e-04,6.19563208,-2.35173780,-1,-0.9600236248583003
1.38989116e+04,5.99999556,-1.19680358e-10,2.78784868,3.72644117,1.46371915,-3.34509848,1.61661016e-04,6.20374232,-2.32463766,-1,-0.9582671016244599
1.45006667e+04,5.99999549,-1.17996414e-10,2.78490188,3.72713347,1.46086116,-3.34509848,1.63525037e-04,6.21188723,-2.29774697,-1,-0.9564337221282748
1.51291560e+04,5.99999542,-1.16623331e-10,2.78273729,3.72784472,1.45835636,-3.34509848,1.65664274e-04,6.22005872,-2.27092311,-1,-0.954518891001473
1.57847223e+04,5.99999534,-1.15542999e-10,2.78128985,3.72855157,1.45621893,-3.34509848,1.67983280e-04,6.22818756,-2.24399226,-1,-0.9525215638283258
1.64694166e+04,5.99999526,-1.14790768e-10,2.78069184,3.72926802,1.45448703,-3.34509848,1.70579882e-04,6.23618424,-2.21671024,-1,-0.9504354917854386
1.71827017e+04,5.99999518,-1.14360911e-10,2.78094438,3.72999591,1.45315753,-3.34509848,1.73475155e-04,6.24392151,-2.18903634,-1,-0.9482623115709721
1.79272393e+04,5.99999510,-1.14303749e-10,2.78219409,3.73074918,1.45227585,-3.34509848,1.76790349e-04,6.25138689,-2.16072945,-1,-0.9459939137294268
1.87022115e+04,5.99999501,-1.14618204e-10,2.78440764,3.73151584,1.45184930,-3.34509848,1.80491741e-04,6.25869754,-2.13168566,-1,-0.9436327901733598
1.95094572e+04,5.99999492,-1.15357860e-10,2.78773720,3.73230730,1.45193115,-3.34509848,1.84692287e-04,6.26616336,-2.10157953,-1,-0.9411733382887583
2.03482217e+04,5.99999482,-1.16580448e-10,2.79230854,3.73313063,1.45257015,-3.34509848,1.89493092e-04,6.27385500,-2.07051427,-1,-0.9386178574354545
2.12200764e+04,5.99999472,-1.18398683e-10,2.79834571,3.73399593,1.45385814,-3.34509848,1.95075874e-04,6.28190508,-2.03852784,-1,-0.9359615599971235
2.21239147e+04,5.99999461,-1.20905872e-10,2.80602003,3.73491363,1.45585991,-3.34509848,2.01599325e-04,6.29039845,-2.00566635,-1,-0.9332078174744813
2.30593276e+04,5.99999449,-1.24244629e-10,2.81557483,3.73590080,1.45866297,-3.34509848,2.09324583e-04,6.29938514,-1.97195064,-1,-0.9303578759761425
2.40239829e+04,5.99999437,-1.28535917e-10,2.82714126,3.73697345,1.46230089,-3.34509848,2.18505686e-04,6.30886868,-1.93740849,-1,-0.9274188410632581
2.50166193e+04,5.99999424,-1.33893031e-10,2.84075373,3.73815138,1.46675126,-3.34509848,2.29455867e-04,6.31897932,-1.90181337,-1,-0.9243945555641788
2.60362733e+04,5.99999410,-1.40349241e-10,2.85622708,3.73946407,1.47186255,-3.34509848,2.42532581e-04,6.32960376,-1.86529254,-1,-0.9212879549939417
2.70847022e+04,5.99999395,-1.47773785e-10,2.87304517,3.74094601,1.47730771,-3.34509848,2.58054919e-04,6.34067421,-1.82810906,-1,-0.9180936853509127
2.81663310e+04,5.99999378,-1.55834468e-10,2.89045675,3.74264214,1.48262124,-3.34509848,2.76319237e-04,6.35234202,-1.78988732,-1,-0.9147982648976365
2.92863894e+04,5.99999360,-1.64090051e-10,2.90770391,3.74461950,1.48729010,-3.34509848,2.97814911e-04,6.36467694,-1.75041214,-1,-0.9113857602008091
3.04478522e+04,5.99999341,-1.72153945e-10,2.92430711,3.74693088,1.49096896,-3.34509848,3.23096910e-04,6.37767268,-1.70959250,-1,-0.907847107876796
3.16511788e+04,5.99999319,-1.79764339e-10,2.94008879,3.74964338,1.49343479,-3.34509848,3.53159241e-04,6.39130302,-1.66744902,-1,-0.9041809082622781
3.28933974e+04,5.99999296,-1.86721035e-10,2.95499801,3.75285499,1.49446619,-3.34509849,3.89652972e-04,6.40549473,-1.62411370,-1,-0.900396215600729
3.41696052e+04,5.99999272,-1.92761847e-10,2.96896296,3.75668510,1.49378844,-3.34509849,4.34941776e-04,6.42015561,-1.57982547,-1,-0.8965079673525772
3.54612102e+04,5.99999247,-1.97375312e-10,2.98176659,3.76149949,1.49056147,-3.34509850,4.95033731e-04,6.43501778,-1.53528543,-1,-0.8925728081421772
3.67422206e+04,5.99999221,-1.99876434e-10,2.99310740,3.76756389,1.48410307,-3.34509854,5.76918059e-04,6.44973272,-1.49141933,-1,-0.8886699277149738
3.80085099e+04,5.99999196,-2.00499190e-10,3.00310262,3.77460235,1.47502376,-3.34509865,6.84032063e-04,6.46422105,-1.44843495,-1,-0.884811898362404
3.92506142e+04,5.99999171,-1.99444066e-10,3.01181271,3.78249772,1.46358806,-3.34509894,8.23316268e-04,6.47833624,-1.40666860,-1,-0.8810275539409885
4.04729905e+04,5.99999147,-1.96953758e-10,3.01936408,3.79103821,1.45028277,-3.34509936,1.00206576e-03,6.49210430,-1.36601268,-1,-0.8773033152182215
4.17082383e+04,5.99999123,-1.93661575e-10,3.02606346,3.79982317,1.43606254,-3.34509988,1.22399489e-03,6.50584509,-1.32536778,-1,-0.873539860634741
4.29679642e+04,5.99999099,-1.89830673e-10,3.03204081,3.80873169,1.42123418,-3.34510257,1.48389802e-03,6.51968852,-1.28444669,-1,-0.8697018281263779
4.42568933e+04,5.99999075,-1.85593449e-10,3.03740630,3.81771731,1.40594569,-3.34511138,1.80685298e-03,6.53366037,-1.24314716,-1,-0.8657748216349059
4.55776853e+04,5.99999050,-1.81095882e-10,3.04228591,3.82675596,1.39030818,-3.34512719,2.21132627e-03,6.54774810,-1.20143726,-1,-0.8617507377982667
4.69321267e+04,5.99999026,-1.76450395e-10,3.04681298,3.83583316,1.37441731,-3.34514569,2.71967731e-03,6.56194591,-1.15931275,-1,-0.8576241336505923
