star_age,star_mass,star_mdot,log_L,log_Teff,log_R,log_surf_z,v_wind_Km_per_s,log_center_T,log_center_Rho,phase
1.50366739e+02,8.99999892,-4.80085623e-09,3.76989082,3.65839739,2.09082777,-3.34509848,1.07339784e-04,5.71620661,-4.33450693,-1
1.56578531e+02,8.99999889,-4.65792800e-09,3.76734364,3.65865474,2.08903949,-3.34509848,1.05835044e-04,5.71798806,-4.32916082,-1
1.58856133e+02,8.99999888,-4.56180581e-09,3.79924030,3.66729918,2.08769894,-3.34509848,1.57036700e-04,5.71871308,-4.32701533,-1
1.63776883e+02,8.99999885,-6.59468669e-09,3.81170533,3.67132885,2.08587212,-3.34509848,2.63502866e-04,5.72027744,-4.32233761,-1
1.70602389e+02,8.99999881,-6.48671077e-09,3.80866238,3.67163774,2.08373287,-3.34509847,2.63317316e-04,5.72241622,-4.31592255,-1
1.77702531e+02,8.99999876,-6.30386030e-09,3.80523685,3.67187729,2.08154100,-3.34509847,2.59584469e-04,5.72461054,-4.30933640,-1
1.85116726e+02,8.99999872,-6.12000333e-09,3.80171133,3.67212319,2.07928645,-3.34509847,2.55739972e-04,5.72686773,-4.30256283,-1
1.92827390e+02,8.99999867,-5.93207853e-09,3.79809432,3.67237501,2.07697429,-3.34509847,2.51648595e-04,5.72918230,-4.29561587,-1
2.00852568e+02,8.99999863,-5.73406392e-09,3.79442030,3.67264306,2.07460118,-3.34509847,2.47099683e-04,5.73155753,-4.28848766,-1
2.09206350e+02,8.99999858,-5.52915092e-09,3.79064891,3.67291801,2.07216558,-3.34509847,2.42146592e-04,5.73399513,-4.28117244,-1
2.17904383e+02,8.99999853,-5.32141748e-09,3.78674712,3.67319216,2.06966639,-3.34509847,2.36894068e-04,5.73649631,-4.27366551,-1
2.26955081e+02,8.99999849,-5.10694392e-09,3.78274371,3.67347303,2.06710294,-3.34509847,2.31198020e-04,5.73906170,-4.26596693,-1
2.36370267e+02,8.99999844,-4.88843435e-09,3.77862973,3.67375873,2.06447456,-3.34509847,2.25147667e-04,5.74169202,-4.25807300,-1
2.46190554e+02,8.99999839,-4.67623232e-09,3.77441654,3.67405467,2.06177609,-3.34509847,2.19218931e-04,5.74439227,-4.24996891,-1
2.56429777e+02,8.99999835,-4.47509631e-09,3.77016585,3.67437658,2.05900691,-3.34509847,2.13724162e-04,5.74716151,-4.24165695,-1
2.67055605e+02,8.99999830,-4.27972922e-09,3.76574005,3.67468534,2.05617650,-3.34509847,2.08229962e-04,5.74998471,-4.23314839,-1
2.78167371e+02,8.99999826,-4.09045206e-09,3.76119032,3.67500044,2.05327144,-3.34509847,2.02817440e-04,5.75286615,-4.22439713,-1
2.89694206e+02,8.99999821,-3.90259667e-09,3.75654368,3.67532213,2.05030473,-3.34509847,1.97297933e-04,5.75579594,-4.21544500,-1
3.01730710e+02,8.99999817,-3.72119826e-09,3.75177173,3.67564897,2.04726507,-3.34509847,1.91875975e-04,5.75878210,-4.20624884,-1
3.14249805e+02,8.99999812,-3.54740517e-09,3.74715663,3.67604997,2.04415552,-3.34509848,1.86968936e-04,5.76182153,-4.19682852,-1
3.27266284e+02,8.99999808,-3.37968542e-09,3.74223804,3.67640759,2.04098099,-3.34509847,1.81933708e-04,5.76491192,-4.18718351,-1
3.40852762e+02,8.99999803,-3.21477054e-09,3.73716130,3.67676176,2.03773429,-3.34509847,1.76762598e-04,5.76805725,-4.17729160,-1
3.54980743e+02,8.99999799,-3.05425284e-09,3.73198218,3.67712326,2.03442173,-3.34509847,1.71619854e-04,5.77125277,-4.16717154,-1
3.69672794e+02,8.99999795,-2.89766130e-09,3.72669316,3.67749027,2.03104319,-3.34509847,1.66465692e-04,5.77449815,-4.15682231,-1
3.84989453e+02,8.99999790,-2.74591133e-09,3.72132761,3.67787343,2.02759410,-3.34509847,1.61379772e-04,5.77779688,-4.14622454,-1
4.00938496e+02,8.99999786,-2.59912859e-09,3.71582673,3.67825669,2.02407714,-3.34509847,1.56306107e-04,5.78114707,-4.13538129,-1
4.17534368e+02,8.99999782,-2.45783662e-09,3.71021607,3.67864573,2.02049374,-3.34509847,1.51311800e-04,5.78454720,-4.12429917,-1
4.34805914e+02,8.99999778,-2.36660071e-09,3.70451092,3.67904429,2.01684404,-3.34509847,1.49231934e-04,5.78799729,-4.11297215,-1
4.52786763e+02,8.99999774,-2.31518946e-09,3.69872123,3.67945518,2.01312740,-3.34509847,1.49609500e-04,5.79149789,-4.10139425,-1
4.71509543e+02,8.99999769,-2.26454154e-09,3.69295063,3.67990467,2.00934312,-3.34509848,1.50149514e-04,5.79504922,-4.08956481,-1
4.90994751e+02,8.99999765,-2.21445516e-09,3.68692846,3.68032273,2.00549592,-3.34509847,1.50569645e-04,5.79864881,-4.07748580,-1
5.11277078e+02,8.99999761,-2.16390109e-09,3.68078984,3.68074312,2.00158583,-3.34509847,1.50925966e-04,5.80229553,-4.06515785,-1
5.32394997e+02,8.99999756,-2.11384473e-09,3.67464321,3.68119356,1.99761163,-3.34509847,1.51387071e-04,5.80599051,-4.05257453,-1
5.54376505e+02,8.99999752,-2.06407430e-09,3.66833010,3.68163292,1.99357636,-3.34509847,1.51776508e-04,5.80973236,-4.03973818,-1
5.77255842e+02,8.99999747,-2.01513416e-09,3.66191998,3.68207786,1.98948141,-3.34509847,1.52196893e-04,5.81351957,-4.02664986,-1
6.01068588e+02,8.99999742,-1.96639296e-09,3.65541285,3.68252771,1.98532816,-3.34509847,1.52596071e-04,5.81735202,-4.01330830,-1
6.25857111e+02,8.99999737,-1.91831727e-09,3.64895636,3.68302193,1.98111146,-3.34509848,1.53162364e-04,5.82123706,-3.99968901,-1
6.51649269e+02,8.99999733,-1.87075223e-09,3.64232062,3.68349871,1.97684004,-3.34509847,1.53640783e-04,5.82516405,-3.98582080,-1
6.78483835e+02,8.99999728,-1.82371880e-09,3.63556069,3.68397021,1.97251708,-3.34509847,1.54072263e-04,5.82913100,-3.97170918,-1
7.06435670e+02,8.99999723,-1.77755406e-09,3.62871224,3.68444639,1.96814049,-3.34509847,1.54524593e-04,5.83314312,-3.95733298,-1
7.35535454e+02,8.99999718,-1.73177884e-09,3.62181250,3.68493574,1.96371192,-3.34509847,1.54988771e-04,5.83719961,-3.94269779,-1
7.65816769e+02,8.99999712,-1.68830615e-09,3.61482406,3.68542712,1.95923494,-3.34509847,1.55591349e-04,5.84129897,-3.92780447,-1
7.97338645e+02,8.99999707,-1.64544827e-09,3.60793451,3.68596768,1.95470905,-3.34509847,1.56372563e-04,5.84544258,-3.91264946,-1
8.30130671e+02,8.99999702,-1.60270438e-09,3.60080052,3.68646859,1.95014023,-3.34509847,1.56928574e-04,5.84962733,-3.89724227,-1
8.64254191e+02,8.99999697,-1.56017387e-09,3.59359742,3.68697356,1.94552875,-3.34509847,1.57434257e-04,5.85385332,-3.88157909,-1
8.99768551e+02,8.99999691,-1.51796570e-09,3.58640528,3.68750275,1.94087428,-3.34509847,1.57978018e-04,5.85812314,-3.86565043,-1
9.36727953e+02,8.99999686,-1.47630448e-09,3.57905981,3.68801304,1.93618098,-3.34509847,1.58402527e-04,5.86243420,-3.84946342,-1
9.75198485e+02,8.99999680,-1.43584033e-09,3.57172791,3.68854584,1.93144942,-3.34509847,1.58943329e-04,5.86678845,-3.83301160,-1
1.01524491e+03,8.99999674,-1.39573833e-09,3.56435268,3.68908580,1.92668189,-3.34509847,1.59447455e-04,5.87118582,-3.81629283,-1
1.05691736e+03,8.99999669,-1.35717778e-09,3.55686024,3.68961201,1.92188324,-3.34509847,1.59962621e-04,5.87562651,-3.79931227,-1
1.10029597e+03,8.99999663,-1.31923550e-09,3.54943959,3.69017208,1.91705279,-3.34509847,1.60575992e-04,5.88011245,-3.78206303,-1
1.14543547e+03,8.99999657,-1.28204896e-09,3.54187274,3.69070892,1.91219569,-3.34509847,1.61071416e-04,5.88464355,-3.76454796,-1
1.19241673e+03,8.99999651,-1.24587731e-09,3.53433220,3.69126515,1.90731294,-3.34509847,1.61654534e-04,5.88922000,-3.74676859,-1
1.24130559e+03,8.99999645,-1.21035380e-09,3.52669999,3.69180911,1.90240893,-3.34509847,1.62147418e-04,5.89384123,-3.72872664,-1
1.29218252e+03,8.99999639,-1.17608048e-09,3.51904089,3.69235494,1.89748771,-3.34509847,1.62688407e-04,5.89850700,-3.71042238,-1
1.34514852e+03,8.99999633,-1.14262389e-09,3.51157137,3.69295836,1.89254613,-3.34509847,1.63450609e-04,5.90322304,-3.69184166,-1
1.40024767e+03,8.99999627,-1.10985267e-09,3.50392852,3.69352412,1.88759317,-3.34509847,1.64025312e-04,5.90798678,-3.67299495,-1
1.45757835e+03,8.99999621,-1.07803335e-09,3.49625632,3.69408886,1.88262760,-3.34509847,1.64601455e-04,5.91279984,-3.65383942,-1
1.51724999e+03,8.99999615,-1.04717977e-09,3.48865462,3.69467251,1.87765943,-3.34509847,1.65261984e-04,5.91766462,-3.63445311,-1
1.57939408e+03,8.99999608,-1.01697297e-09,3.48099380,3.69524273,1.87268859,-3.34509847,1.65824891e-04,5.92258161,-3.61478847,-1
1.64407483e+03,8.99999602,-9.88021273e-10,3.47333967,3.69581311,1.86772076,-3.34509847,1.66445452e-04,5.92754904,-3.59485258,-1
1.71138451e+03,8.99999595,-9.59720511e-10,3.46569959,3.69638456,1.86275783,-3.34509847,1.67034415e-04,5.93251789,-3.57473337,-1
1.78143733e+03,8.99999589,-9.32012274e-10,3.45820204,3.69699025,1.85779768,-3.34509847,1.67717887e-04,5.93749887,-3.55436792,-1
1.85430315e+03,8.99999582,-9.05576238e-10,3.45063498,3.69757001,1.85285462,-3.34509847,1.68368564e-04,5.94263303,-3.53361173,-1
1.93016955e+03,8.99999575,-8.79984559e-10,3.44310923,3.69815026,1.84793125,-3.34509847,1.69020358e-04,5.94783965,-3.51255860,-1
2.00918780e+03,8.99999568,-8.55256924e-10,3.43563722,3.69873087,1.84303403,-3.34509847,1.69677071e-04,5.95310918,-3.49121000,-1
2.09143594e+03,8.99999562,-8.31393794e-10,3.42842537,3.69936453,1.83816077,-3.34509847,1.70567006e-04,5.95844380,-3.46956071,-1
2.17698743e+03,8.99999555,-8.08389253e-10,3.42113556,3.69996121,1.83332251,-3.34509847,1.71319353e-04,5.96384512,-3.44762111,-1
2.26601369e+03,8.99999548,-7.86306924e-10,3.41391203,3.70055384,1.82852549,-3.34509847,1.72084957e-04,5.96931567,-3.42538760,-1
2.35880504e+03,8.99999540,-7.64884217e-10,3.40679642,3.70114986,1.82377564,-3.34509847,1.72837475e-04,5.97485764,-3.40280106,-1
2.45535792e+03,8.99999533,-7.44469522e-10,3.39985404,3.70176227,1.81907963,-3.34509847,1.73717601e-04,5.98048669,-3.37994070,-1
2.55580157e+03,8.99999526,-7.24855858e-10,3.39297821,3.70236064,1.81444498,-3.34509847,1.74558617e-04,5.98619858,-3.35677572,-1
2.66042351e+03,8.99999518,-7.06152338e-10,3.38625243,3.70296038,1.80988262,-3.34509847,1.75448860e-04,5.99199752,-3.33328995,-1
2.76939806e+03,8.99999511,-6.88247222e-10,3.37969818,3.70356323,1.80539978,-3.34509847,1.76374406e-04,5.99788929,-3.30944897,-1
2.88280220e+03,8.99999503,-6.71200239e-10,3.37340088,3.70418607,1.80100546,-3.34509847,1.77428831e-04,6.00387728,-3.28528803,-1
3.00079255e+03,8.99999495,-6.55041004e-10,3.36726263,3.70479900,1.79671046,-3.34509847,1.78503522e-04,6.00996354,-3.26078547,-1
3.12384468e+03,8.99999487,-6.39782583e-10,3.36136683,3.70541382,1.79253293,-3.34509847,1.79641278e-04,6.01616278,-3.23591201,-1
3.25187864e+03,8.99999479,-6.25442452e-10,3.35570414,3.70602330,1.78848262,-3.34509847,1.80835324e-04,6.02247254,-3.21068532,-1
3.38511215e+03,8.99999471,-6.11944588e-10,3.35033660,3.70663461,1.78457623,-3.34509847,1.82094751e-04,6.02890064,-3.18508517,-1
3.52400204e+03,8.99999463,-5.99412870e-10,3.34534709,3.70725815,1.78083440,-3.34509847,1.83497479e-04,6.03546442,-3.15908502,-1
3.66862116e+03,8.99999454,-5.87871518e-10,3.34069181,3.70787376,1.77727553,-3.34509847,1.84973818e-04,6.04216919,-3.13268189,-1
3.81912559e+03,8.99999446,-5.77292057e-10,3.33654476,3.70851562,1.77391830,-3.34509847,1.86664751e-04,6.04901715,-3.10586456,-1
3.97593272e+03,8.99999437,-5.67670595e-10,3.33285245,3.70915553,1.77079232,-3.34509847,1.88445692e-04,6.05602605,-3.07858509,-1
4.13913223e+03,8.99999427,-5.59003580e-10,3.32969705,3.70979933,1.76792701,-3.34509847,1.90336413e-04,6.06320549,-3.05082995,-1
4.30915742e+03,8.99999418,-5.52002667e-10,3.32708490,3.71042360,1.76537241,-3.34509847,1.92464415e-04,6.07057008,-3.02259746,-1
4.48621345e+03,8.99999408,-5.46385310e-10,3.32524932,3.71106616,1.76316950,-3.34509847,1.94896078e-04,6.07812858,-2.99386819,-1
4.67053664e+03,8.99999398,-5.42288004e-10,3.32420009,3.71170412,1.76136896,-3.34509847,1.97563611e-04,6.08589811,-2.96460459,-1
4.86234768e+03,8.99999388,-5.39859264e-10,3.32409723,3.71234243,1.76004091,-3.34509847,2.00515340e-04,6.09390051,-2.93481797,-1
5.06187232e+03,8.99999377,-5.39371420e-10,3.32512242,3.71299223,1.75925391,-3.34509847,2.03874536e-04,6.10215196,-2.90448017,-1
5.26915008e+03,8.99999366,-5.41068713e-10,3.32745068,3.71365998,1.75908252,-3.34509847,2.07727085e-04,6.11066963,-2.87360326,-1
5.48446810e+03,8.99999354,-5.45453011e-10,3.33124603,3.71432711,1.75964594,-3.34509847,2.12102064e-04,6.11948212,-2.84211636,-1
5.70748834e+03,8.99999342,-5.53122948e-10,3.33678351,3.71500765,1.76105360,-3.34509847,2.17217698e-04,6.12859698,-2.81008746,-1
5.93811248e+03,8.99999329,-5.64902666e-10,3.34437760,3.71570491,1.76345613,-3.34509847,2.23285742e-04,6.13803627,-2.77748196,-1
6.17575628e+03,8.99999315,-5.81738989e-10,3.35437950,3.71642457,1.76701776,-3.34509847,2.30540162e-04,6.14781050,-2.74441154,-1
6.41931802e+03,8.99999301,-6.04676861e-10,3.36706375,3.71717735,1.77185432,-3.34509847,2.39278842e-04,6.15790988,-2.71097050,-1
6.66755273e+03,8.99999285,-6.34911621e-10,3.38268041,3.71797717,1.77806302,-3.34509847,2.49841972e-04,6.16831985,-2.67729504,-1
6.91906108e+03,8.99999269,-6.73493733e-10,3.40121424,3.71885077,1.78558273,-3.34509847,2.62674282e-04,6.17902464,-2.64353412,-1
7.17310715e+03,8.99999251,-7.20879832e-10,3.42235571,3.71985347,1.79414806,-3.34509848,2.78353101e-04,6.19004076,-2.60969568,-1
7.43088058e+03,8.99999232,-7.75940604e-10,3.44514884,3.72104571,1.80316015,-3.34509848,2.97360647e-04,6.20144577,-2.57567129,-1
7.69630291e+03,8.99999210,-8.35514793e-10,3.46808791,3.72250120,1.81171870,-3.34509848,3.20149086e-04,6.21345475,-2.54105801,-1
7.97466502e+03,8.99999186,-8.94048279e-10,3.48942282,3.72429088,1.81880680,-3.34509848,3.46918572e-04,6.22623595,-2.50543955,-1
8.26896162e+03,8.99999159,-9.46001788e-10,3.50796150,3.72648207,1.82369377,-3.34509848,3.78034776e-04,6.23989210,-2.46869913,-1
8.57885791e+03,8.99999128,-9.87979822e-10,3.52339532,3.72917821,1.82601839,-3.34509848,4.14940779e-04,6.25428558,-2.43132677,-1
8.90177289e+03,8.99999096,-1.01883375e-09,3.53593326,3.73251897,1.82560585,-3.34509848,4.60483359e-04,6.26907737,-2.39401468,-1
9.23398891e+03,8.99999062,-1.03458796e-09,3.54542708,3.73672216,1.82194637,-3.34509848,5.18424541e-04,6.28381132,-2.35718907,-1
9.57285398e+03,8.99999027,-1.03646939e-09,3.55215671,3.74172014,1.81531523,-3.34509848,5.91317873e-04,6.29787893,-2.32104609,-1
9.91710996e+03,8.99998991,-1.02755503e-09,3.55681307,3.74732681,1.80643006,-3.34509848,6.80411016e-04,6.31097572,-2.28502109,-1
1.02653067e+04,8.99998956,-1.01049581e-09,3.55989238,3.75346847,1.79568640,-3.34509849,7.88696732e-04,6.32302520,-2.24891401,-1
1.06146942e+04,8.99998921,-9.86860022e-10,3.56174877,3.76016564,1.78322027,-3.34509851,9.21452774e-04,6.33442408,-2.21284307,-1
1.09678627e+04,8.99998886,-9.59334016e-10,3.56283988,3.76721084,1.76967541,-3.34509853,1.08077979e-03,6.34558389,-2.17668820,-1
1.13287781e+04,8.99998852,-9.30765430e-10,3.56359250,3.77439961,1.75567418,-3.34509856,1.26902888e-03,6.35683353,-2.14008976,-1
1.16991339e+04,8.99998819,-9.02516124e-10,3.56433533,3.78166149,1.74152184,-3.34509859,1.49081185e-03,6.36828333,-2.10300667,-1
1.20793954e+04,8.99998785,-8.75746724e-10,3.56538817,3.78898702,1.72739720,-3.34509863,1.75348588e-03,6.37993749,-2.06556442,-1
1.24683232e+04,8.99998751,-8.51376978e-10,3.56719102,3.79640127,1.71347012,-3.34509889,2.06798128e-03,6.39193193,-2.02736743,-1
1.28653938e+04,8.99998718,-8.30024330e-10,3.56999731,3.80392943,1.69981695,-3.34509944,2.44171524e-03,6.40394889,-1.98910454,-1
1.32691854e+04,8.99998685,-8.11976828e-10,3.57397267,3.81159241,1.68647867,-3.34510054,2.89566348e-03,6.41610936,-1.95069146,-1
1.36787981e+04,8.99998652,-7.96952405e-10,3.57909087,3.81939818,1.67342622,-3.34510234,3.46310716e-03,6.42839024,-1.91223759,-1
1.40935206e+04,8.99998619,-7.84470580e-10,3.58521474,3.82735061,1.66058329,-3.34510485,4.17997292e-03,6.44077876,-1.87373446,-1
1.45132710e+04,8.99998587,-7.73792068e-10,3.59209443,3.83544327,1.64783784,-3.34510809,5.09574994e-03,6.45327519,-1.83516421,-1
1.49383640e+04,8.99998554,-7.64165822e-10,3.59945205,3.84366750,1.63506817,-3.34511153,6.27718760e-03,6.46589345,-1.79646889,-1
1.53698973e+04,8.99998521,-7.54813889e-10,3.60698341,3.85200463,1.62215959,-3.34511531,7.81644933e-03,6.47862982,-1.75761695,-1
1.58086573e+04,8.99998488,-7.45171555e-10,3.61446774,3.86044337,1.60902429,-3.34511815,9.84736122e-03,6.49149839,-1.71853284,-1
1.62554742e+04,8.99998455,-7.34858352e-10,3.62173437,3.86897201,1.59560032,-3.34511916,1.25430324e-02,6.50452239,-1.67914021,-1
1.67115268e+04,8.99998422,-7.23577717e-10,3.62863473,3.87757310,1.58184833,-3.34511958,1.61121181e-02,6.51772071,-1.63944295,-1
1.71776111e+04,8.99998389,-7.11195942e-10,3.63509643,3.88623496,1.56775544,-3.34511852,2.08462619e-02,6.53107430,-1.59941443,-1
1.76548630e+04,8.99998355,-6.97696390e-10,3.64105040,3.89494159,1.55331917,-3.34511646,2.70498084e-02,6.54456954,-1.55905601,-1
1.81437005e+04,8.99998321,-6.83163123e-10,3.64652057,3.90368518,1.53856708,-3.34511310,3.50870677e-02,6.55821067,-1.51831287,-1
1.86447598e+04,8.99998288,-6.67778528e-10,3.65153499,3.91245651,1.52353163,-3.34510729,4.52856535e-02,6.57199428,-1.47719383,-1
1.91587890e+04,8.99998254,-6.51711565e-10,3.65613197,3.92124631,1.50825053,-3.34511206,5.77317674e-02,6.58591336,-1.43573800,-1
1.96865126e+04,8.99998220,-6.35175153e-10,3.66036355,3.93004709,1.49276475,-3.34511133,7.20372124e-02,6.59995279,-1.39397853,-1
2.02278716e+04,8.99998186,-6.18440257e-10,3.66433894,3.93885950,1.47712762,-3.34511406,8.71670149e-02,6.61409722,-1.35188655,-1
2.07835071e+04,8.99998152,-6.01707759e-10,3.66812533,3.94767919,1.46138143,-3.34511491,1.01157206e-01,6.62833987,-1.30956294,-1
2.13531862e+04,8.99998119,-5.85205390e-10,3.67183241,3.95651064,1.44557207,-3.34511907,1.11330538e-01,6.64267676,-1.26699121,-1
2.19371814e+04,8.99998085,-5.69087625e-10,3.67553168,3.96535399,1.42973501,-3.34512005,1.16121702e-01,6.65707889,-1.22422761,-1
2.25355420e+04,8.99998051,-5.53465728e-10,3.67928756,3.97421189,1.41389716,-3.34512180,1.16185982e-01,6.67153898,-1.18131386,-1
2.31485761e+04,8.99998018,-5.38406569e-10,3.68314169,3.98308577,1.39807646,-3.34512229,1.13304508e-01,6.68605321,-1.13830642,-1
2.37756350e+04,8.99997985,-5.23995879e-10,3.68716707,3.99198350,1.38229368,-3.34512268,1.09059693e-01,6.70062218,-1.09520021,-1
2.44171121e+04,8.99997952,-5.10221942e-10,3.69137104,4.00090360,1.36655547,-3.34512220,1.04483687e-01,6.71521985,-1.05203762,-1
2.50732745e+04,8.99997919,-4.97065279e-10,3.69575318,4.00984632,1.35086110,-3.34512122,1.00115007e-01,6.72984654,-1.00881424,-1
2.57444969e+04,8.99997886,-4.84491282e-10,3.70030585,4.01881087,1.33520834,-3.34511992,9.62456278e-02,6.74449437,-9.65554009e-01,-1
2.64310488e+04,8.99997853,-4.72413018e-10,3.70500283,4.02779649,1.31958558,-3.34511875,9.28887045e-02,6.75918772,-9.22257752e-01,-1
2.71331701e+04,8.99997820,-4.60825813e-10,3.70984355,4.03680404,1.30399085,-3.34511740,8.99626160e-02,6.77391465,-8.78911268e-01,-1
2.78514748e+04,8.99997788,-4.58686845e-10,3.71478754,4.04583137,1.28840818,-3.34511755,8.91286966e-02,6.78867321,-8.35522269e-01,-1
2.85865229e+04,8.99997754,-4.61737933e-10,3.71978802,4.05487614,1.27281889,-3.34511673,8.95236015e-02,6.80347092,-7.92073574e-01,-1
2.93388313e+04,8.99997719,-4.64978381e-10,3.72482446,4.06393775,1.25721387,-3.34511983,9.00997026e-02,6.81830834,-7.48578247e-01,-1
3.01095696e+04,8.99997683,-4.68142111e-10,3.72984156,4.07301229,1.24157336,-3.34512361,9.06914831e-02,6.83319391,-7.05062589e-01,-1
3.08987182e+04,8.99997646,-4.71177135e-10,3.73482966,4.08210115,1.22588969,-3.34512637,9.12644513e-02,6.84812082,-6.61463275e-01,-1
3.17072250e+04,8.99997608,-4.73949705e-10,3.73975432,4.09120163,1.21015104,-3.34512830,9.22367736e-02,6.86308348,-6.17813210e-01,-1
3.25358168e+04,8.99997568,-4.76292461e-10,3.74458227,4.10031256,1.19434317,-3.34512644,9.43515381e-02,6.87808150,-5.74113265e-01,-1
3.33848724e+04,8.99997528,-4.78114178e-10,3.74930018,4.10943567,1.17845590,-3.34512712,9.94570083e-02,6.89310876,-5.30385529e-01,-1
3.42561394e+04,8.99997486,-4.79322155e-10,3.75388144,4.11856061,1.16249665,-3.34513085,1.04569061e-01,6.90817124,-4.86578528e-01,-1
3.51515081e+04,8.99997443,-4.79875615e-10,3.75831899,4.12767643,1.14648378,-3.34513203,1.05306181e-01,6.92327562,-4.42647473e-01,-1
3.60715268e+04,8.99997399,-4.79717590e-10,3.76259471,4.13678494,1.13040463,-3.34512590,1.03567670e-01,6.93842453,-3.98609211e-01,-1
3.70173432e+04,8.99997353,-4.78679189e-10,3.76667590,4.14588493,1.11424524,-3.34513004,1.01503362e-01,6.95361699,-3.54519768e-01,-1
