star_age,star_mass,star_mdot,log_L,log_Teff,log_R,log_surf_z,v_wind_Km_per_s,log_center_T,log_center_Rho,phase,x
1.26136818e+02,9.99999451,-3.71589680e-08,3.87217315,3.65693833,2.14488707,-3.34509847,6.79749436e-04,5.70249225,-4.44918372,-1,-1.0
1.31445415e+02,9.99999431,-3.66879651e-08,3.86926330,3.65709295,2.14312291,-3.34509847,6.77630054e-04,5.70426491,-4.44386000,-1,-0.9999584825586961
1.36950694e+02,9.99999412,-3.62123963e-08,3.86626471,3.65725245,2.14130460,-3.34509847,6.75536566e-04,5.70608316,-4.43837046,-1,-0.9999154269080707
1.42674788e+02,9.99999391,-3.57387246e-08,3.86316471,3.65741424,2.13943102,-3.34509847,6.73549682e-04,5.70795234,-4.43270037,-1,-0.9998706599504992
1.48626537e+02,9.99999370,-3.52673235e-08,3.85997499,3.65758031,2.13750404,-3.34509848,6.71691189e-04,5.70987138,-4.42685473,-1,-0.9998241125501668
1.54814354e+02,9.99999349,-3.47886771e-08,3.85672960,3.65775904,2.13552388,-3.34509849,6.69879773e-04,5.71183259,-4.42085312,-1,-0.9997757189107369
1.61292381e+02,9.99999326,-3.42851679e-08,3.85344133,3.65795500,2.13348782,-3.34509851,6.67799826e-04,5.71379344,-4.41477440,-1,-0.999725055598804
1.68030744e+02,9.99999304,-3.37392840e-08,3.85000603,3.65814555,2.13138906,-3.34509852,6.64858066e-04,5.71583914,-4.40841215,-1,-0.9996723562527552
1.70669962e+02,9.99999295,-3.33678154e-08,3.87867373,3.66604075,2.12993251,-3.34509853,9.66750064e-04,5.71673015,-4.40573808,-1,-0.9996517154735808
1.75150829e+02,9.99999278,-3.81111547e-08,3.89406206,3.67083079,2.12804661,-3.34509854,1.32583717e-03,5.71829309,-4.40114815,-1,-0.9996166715377418
1.82467476e+02,9.99999251,-3.75310792e-08,3.89020005,3.67110927,2.12555864,-3.34509848,1.32724889e-03,5.72081858,-4.39369087,-1,-0.999559449551902
1.90090793e+02,9.99999223,-3.69932380e-08,3.88626200,3.67139267,2.12302282,-3.34509848,1.33027437e-03,5.72339189,-4.38608417,-1,-0.9994998291632968
1.98025871e+02,9.99999194,-3.64503701e-08,3.88223307,3.67168398,2.12042572,-3.34509848,1.33342413e-03,5.72601318,-4.37826959,-1,-0.9994377705562664
2.06273874e+02,9.99999164,-3.58677098e-08,3.87809046,3.67198371,2.11775496,-3.34509848,1.33547313e-03,5.72868577,-4.37020186,-1,-0.9993732646274067
2.14878785e+02,9.99999134,-3.52367234e-08,3.87385716,3.67228945,2.11502684,-3.34509849,1.33584088e-03,5.73140315,-4.36194887,-1,-0.9993059673947542
2.23852918e+02,9.99999102,-3.45859850e-08,3.86951157,3.67260104,2.11223086,-3.34509848,1.33553714e-03,5.73417274,-4.35346490,-1,-0.9992357825530568
2.33191097e+02,9.99999071,-3.39286668e-08,3.86507917,3.67292416,2.10936841,-3.34509847,1.33524770e-03,5.73699359,-4.34475922,-1,-0.9991627505827421
2.42904096e+02,9.99999038,-3.32674304e-08,3.86053996,3.67325359,2.10643995,-3.34509849,1.33488672e-03,5.73986562,-4.33582877,-1,-0.9990867872225798
2.53002709e+02,9.99999005,-3.25937822e-08,3.85588754,3.67358756,2.10344580,-3.34509851,1.33397696e-03,5.74278915,-4.32667529,-1,-0.9990078080549245
2.63550167e+02,9.99998972,-3.19259858e-08,3.85111924,3.67392938,2.10037802,-3.34509851,1.33335045e-03,5.74577047,-4.31727019,-1,-0.9989253185631775
2.74534376e+02,9.99998937,-3.12593627e-08,3.84625240,3.67428084,2.09724166,-3.34509847,1.33287646e-03,5.74880495,-4.30762851,-1,-0.9988394133320163
2.85945462e+02,9.99998902,-3.05939687e-08,3.84127788,3.67464377,2.09402854,-3.34509847,1.33266481e-03,5.75190027,-4.29771749,-1,-0.9987501695839567
2.97842766e+02,9.99998867,-2.99248109e-08,3.83616617,3.67501143,2.09073738,-3.34509848,1.33219134e-03,5.75505714,-4.28753142,-1,-0.9986571232252872
3.10242690e+02,9.99998830,-2.92492360e-08,3.83095477,3.67538511,2.08738431,-3.34509849,1.33127091e-03,5.75826132,-4.27712329,-1,-0.9985601459793515
3.23112761e+02,9.99998793,-2.85834279e-08,3.82566603,3.67576446,2.08398125,-3.34509847,1.33060207e-03,5.76150367,-4.26653304,-1,-0.9984594918107795
3.36573390e+02,9.99998756,-2.79252835e-08,3.82026801,3.67615699,2.08049718,-3.34509849,1.33035702e-03,5.76480943,-4.25564412,-1,-0.9983542190099962
3.50539782e+02,9.99998717,-2.72565777e-08,3.81474660,3.67655070,2.07694905,-3.34509853,1.32928280e-03,5.76816516,-4.24451559,-1,-0.9982449907411926
3.65114585e+02,9.99998678,-2.65946142e-08,3.80911081,3.67695677,2.07331901,-3.34509848,1.32853419e-03,5.77158541,-4.23307639,-1,-0.9981310042155498
3.80254567e+02,9.99998639,-2.59433638e-08,3.80340469,3.67737078,2.06963794,-3.34509847,1.32809001e-03,5.77504488,-4.22144325,-1,-0.9980125975416158
3.96060067e+02,9.99998599,-2.52964059e-08,3.79758742,3.67778710,2.06589667,-3.34509850,1.32736546e-03,5.77855231,-4.20957383,-1,-0.997888985988784
4.12464810e+02,9.99998558,-2.46536272e-08,3.79167500,3.67820966,2.06209532,-3.34509847,1.32657211e-03,5.78210752,-4.19746407,-1,-0.9977606878801487
4.29598914e+02,9.99998517,-2.40193884e-08,3.78564575,3.67864362,2.05821278,-3.34509851,1.32607277e-03,5.78572463,-4.18501676,-1,-0.9976266855896916
4.47402801e+02,9.99998475,-2.33845273e-08,3.77952059,3.67908351,2.05427042,-3.34509847,1.32515643e-03,5.78939103,-4.17231932,-1,-0.9974874450646521
4.65930120e+02,9.99998433,-2.27617239e-08,3.77332353,3.67952906,2.05028081,-3.34509847,1.32440843e-03,5.79309837,-4.15942630,-1,-0.997342546727276
4.85256976e+02,9.99998390,-2.21464910e-08,3.76703184,3.67998235,2.04622838,-3.34509850,1.32364449e-03,5.79685735,-4.14625474,-1,-0.9971913953760682
5.05348565e+02,9.99998346,-2.15393248e-08,3.76063700,3.68044712,2.04210142,-3.34509847,1.32313949e-03,5.80067742,-4.13274959,-1,-0.9970342632059283
5.26242973e+02,9.99998302,-2.09384765e-08,3.75414097,3.68091008,2.03792748,-3.34509847,1.32218760e-03,5.80453738,-4.11902331,-1,-0.9968708523541121
5.48040824e+02,9.99998257,-2.03499754e-08,3.74759789,3.68138596,2.03370417,-3.34509847,1.32157000e-03,5.80844084,-4.10505816,-1,-0.9967003758610872
5.70723507e+02,9.99998212,-1.97694816e-08,3.74095055,3.68186243,2.02942756,-3.34509848,1.32066890e-03,5.81239208,-4.09082578,-1,-0.9965229792796428
5.94320912e+02,9.99998167,-1.91993763e-08,3.73420917,3.68234787,2.02508599,-3.34509851,1.31998025e-03,5.81640461,-4.07627356,-1,-0.9963384288462589
6.18877677e+02,9.99998121,-1.86373134e-08,3.72741376,3.68283806,2.02070791,-3.34509847,1.31903569e-03,5.82044896,-4.06150932,-1,-0.996146375456352
6.44435172e+02,9.99998074,-1.80896433e-08,3.72055299,3.68333613,2.01628138,-3.34509856,1.31843788e-03,5.82454061,-4.04647696,-1,-0.9959464955636919
6.71058994e+02,9.99998027,-1.75489993e-08,3.71361617,3.68383900,2.01180725,-3.34509848,1.31753286e-03,5.82867994,-4.03116963,-1,-0.9957382761476825
6.98784949e+02,9.99997979,-1.70263760e-08,3.70660643,3.68434590,2.00728857,-3.34509847,1.31709417e-03,5.83286705,-4.01558755,-1,-0.9955214371769893
7.27639904e+02,9.99997931,-1.65099801e-08,3.69954637,3.68486130,2.00272775,-3.34509848,1.31639257e-03,5.83710074,-3.99973533,-1,-0.9952957685303511
7.57669446e+02,9.99997883,-1.60028907e-08,3.69242293,3.68538093,1.99812676,-3.34509847,1.31550257e-03,5.84138242,-3.98360667,-1,-0.9950609136812514
7.88926128e+02,9.99997834,-1.55094568e-08,3.68524523,3.68590595,1.99348787,-3.34509847,1.31479080e-03,5.84571091,-3.96720481,-1,-0.9948164616235254
8.21460859e+02,9.99997785,-1.50283270e-08,3.67801608,3.68643569,1.98881381,-3.34509847,1.31413915e-03,5.85008673,-3.95052579,-1,-0.9945620142083932
8.55322201e+02,9.99997735,-1.45586502e-08,3.67072109,3.68697140,1.98409490,-3.34509847,1.31357655e-03,5.85451703,-3.93350760,-1,-0.9942971916424772
8.90572246e+02,9.99997685,-1.40998415e-08,3.66340848,3.68751123,1.97935892,-3.34509847,1.31284483e-03,5.85898931,-3.91627669,-1,-0.9940215083170627
9.27265829e+02,9.99997635,-1.36567842e-08,3.65605823,3.68805491,1.97459644,-3.34509847,1.31247603e-03,5.86350992,-3.89876535,-1,-0.9937345353789342
9.65458710e+02,9.99997584,-1.32235434e-08,3.64867798,3.68860285,1.96981044,-3.34509848,1.31190822e-03,5.86807889,-3.88097351,-1,-0.9934358367406421
1.00521398e+03,9.99997532,-1.28019694e-08,3.64127367,3.68915517,1.96500365,-3.34509847,1.31135879e-03,5.87269645,-3.86290271,-1,-0.9931249189804987
1.04659422e+03,9.99997481,-1.23926704e-08,3.63384699,3.68971064,1.96017937,-3.34509847,1.31083031e-03,5.87736376,-3.84454879,-1,-0.9928012926654217
1.08966204e+03,9.99997429,-1.19956657e-08,3.62639262,3.69027230,1.95532887,-3.34509847,1.31051453e-03,5.88210064,-3.82586006,-1,-0.9924644681355254
1.13449047e+03,9.99997376,-1.16115583e-08,3.61893290,3.69083621,1.95047118,-3.34509847,1.31029676e-03,5.88688389,-3.80690230,-1,-0.9921138742382549
1.18115141e+03,9.99997323,-1.12372243e-08,3.61149098,3.69140506,1.94561253,-3.34509847,1.30990705e-03,5.89171013,-3.78768471,-1,-0.9917489486585523
1.22971977e+03,9.99997270,-1.08787163e-08,3.60405327,3.69197514,1.94075351,-3.34509847,1.30998019e-03,5.89658783,-3.76818958,-1,-0.9913691055407712
1.28029995e+03,9.99997216,-1.05291867e-08,3.59663505,3.69255021,1.93589425,-3.34509847,1.30984536e-03,5.90152493,-3.74839627,-1,-0.9909735283940623
1.33296304e+03,9.99997162,-1.01930913e-08,3.58922236,3.69312900,1.93103032,-3.34509847,1.31008716e-03,5.90653418,-3.72826003,-1,-0.9905616612382104
1.38777977e+03,9.99997108,-9.86717885e-09,3.58183985,3.69371098,1.92617512,-3.34509847,1.31026670e-03,5.91160487,-3.70782211,-1,-0.9901329509084861
1.44484096e+03,9.99997053,-9.55478232e-09,3.57450991,3.69429566,1.92134078,-3.34509847,1.31081251e-03,5.91673015,-3.68712510,-1,-0.989686687120417
1.50423061e+03,9.99996997,-9.25189581e-09,3.56722425,3.69488246,1.91652437,-3.34509847,1.31124313e-03,5.92192169,-3.66611881,-1,-0.9892222129273429
1.56604837e+03,9.99996941,-8.96329012e-09,3.55999707,3.69547221,1.91173127,-3.34509847,1.31229133e-03,5.92718481,-3.64480206,-1,-0.9887387489871842
1.63039454e+03,9.99996885,-8.68406721e-09,3.55284572,3.69606308,1.90697385,-3.34509847,1.31320301e-03,5.93250864,-3.62320500,-1,-0.9882355108743454
1.69738218e+03,9.99996828,-8.41567097e-09,3.54576614,3.69665767,1.90224487,-3.34509847,1.31437769e-03,5.93792104,-3.60124681,-1,-0.987711614369905
1.76718916e+03,9.99996771,-8.15921571e-09,3.53878966,3.69725556,1.89756087,-3.34509847,1.31592563e-03,5.94340987,-3.57896998,-1,-0.98716566838931
1.83985886e+03,9.99996713,-7.91525121e-09,3.53193133,3.69785282,1.89293718,-3.34509847,1.31788967e-03,5.94896150,-3.55642871,-1,-0.9865973336665352
1.91550328e+03,9.99996654,-7.68199472e-09,3.52519698,3.69845204,1.88837156,-3.34509847,1.32016298e-03,5.95459642,-3.53356119,-1,-0.9860057342727006
1.99424738e+03,9.99996595,-7.45894850e-09,3.51859147,3.69905358,1.88386572,-3.34509847,1.32273276e-03,5.96032891,-3.51031924,-1,-0.9853898929214407
2.07621726e+03,9.99996535,-7.24549520e-09,3.51213652,3.69965805,1.87942932,-3.34509847,1.32557437e-03,5.96616504,-3.48669643,-1,-0.9847488234106863
2.16156596e+03,9.99996474,-7.04456988e-09,3.50588830,3.70026503,1.87509124,-3.34509847,1.32914044e-03,5.97208453,-3.46280565,-1,-0.9840813288461885
2.25049488e+03,9.99996413,-6.85401543e-09,3.49981215,3.70087429,1.87083465,-3.34509847,1.33322946e-03,5.97813925,-3.43843692,-1,-0.9833858341201217
2.34312366e+03,9.99996351,-6.67523283e-09,3.49397238,3.70148161,1.86670011,-3.34509847,1.33791503e-03,5.98428555,-3.41376009,-1,-0.9826614035527427
2.43958164e+03,9.99996288,-6.50695094e-09,3.48840443,3.70209183,1.86269570,-3.34509847,1.34318754e-03,5.99053702,-3.38873594,-1,-0.9819070256026107
2.54002452e+03,9.99996224,-6.34994796e-09,3.48312981,3.70270628,1.85882950,-3.34509847,1.34933836e-03,5.99691716,-3.36330356,-1,-0.9811214825721661
2.64462547e+03,9.99996158,-6.20528054e-09,3.47816960,3.70331966,1.85512263,-3.34509847,1.35647989e-03,6.00342942,-3.33746982,-1,-0.9803034201345859
2.75354441e+03,9.99996092,-6.07056937e-09,3.47356272,3.70393767,1.85158317,-3.34509847,1.36438267e-03,6.01010208,-3.31113430,-1,-0.9794515875885618
2.86698713e+03,9.99996024,-5.94932858e-09,3.46937250,3.70455666,1.84825007,-3.34509847,1.37366595e-03,6.01691793,-3.28436280,-1,-0.978564375492984
2.98515012e+03,9.99995955,-5.84102211e-09,3.46566699,3.70517689,1.84515686,-3.34509847,1.38422737e-03,6.02388438,-3.25718463,-1,-0.9776402471401233
3.10822473e+03,9.99995884,-5.74671851e-09,3.46248293,3.70579680,1.84232501,-3.34509847,1.39635744e-03,6.03103108,-3.22950254,-1,-0.9766777060211294
3.23641960e+03,9.99995811,-5.66663563e-09,3.45994502,3.70642111,1.83980745,-3.34509847,1.41016337e-03,6.03834188,-3.20141164,-1,-0.9756751204056309
3.36992337e+03,9.99995736,-5.60300876e-09,3.45808577,3.70704764,1.83762475,-3.34509847,1.42623758e-03,6.04587457,-3.17273213,-1,-0.9746310149791281
3.50892904e+03,9.99995658,-5.55616207e-09,3.45704153,3.70767513,1.83584765,-3.34509847,1.44445053e-03,6.05360335,-3.14355423,-1,-0.9735438803284613
3.65358774e+03,9.99995578,-5.52865421e-09,3.45691922,3.70830677,1.83452322,-3.34509847,1.46552077e-03,6.06157441,-3.11375955,-1,-0.9724125344970975
3.80405862e+03,9.99995495,-5.52348731e-09,3.45787401,3.70894104,1.83373207,-3.34509847,1.48993398e-03,6.06979122,-3.08337641,-1,-0.9712357328057397
3.96046883e+03,9.99995409,-5.54521752e-09,3.46009327,3.70957973,1.83356432,-3.34509847,1.51868159e-03,6.07826858,-3.05240505,-1,-0.9700124808404847
4.12288410e+03,9.99995318,-5.60038220e-09,3.46378819,3.71022255,1.83412615,-3.34509847,1.55309581e-03,6.08703099,-3.02080573,-1,-0.9687422645405712
4.29118904e+03,9.99995223,-5.69605326e-09,3.46921876,3.71087469,1.83553716,-3.34509847,1.59469398e-03,6.09610640,-2.98854761,-1,-0.9674259863473694
4.46532459e+03,9.99995122,-5.84428374e-09,3.47674553,3.71153563,1.83797866,-3.34509847,1.64571983e-03,6.10551026,-2.95565773,-1,-0.966064108156948
4.64466956e+03,9.99995014,-6.05659550e-09,3.48667154,3.71221431,1.84158430,-3.34509847,1.70859682e-03,6.11524507,-2.92221614,-1,-0.964661488168067
4.82852463e+03,9.99994900,-6.35046994e-09,3.49939553,3.71291951,1.84653591,-3.34509847,1.78674031e-03,6.12530770,-2.88831008,-1,-0.9632235956180883
5.01567862e+03,9.99994776,-6.74316614e-09,3.51518253,3.71367489,1.85291863,-3.34509847,1.88415459e-03,6.13567288,-2.85408748,-1,-0.9617599028957732
5.20494658e+03,9.99994643,-7.25515462e-09,3.53413579,3.71450022,1.86074461,-3.34509847,2.00549513e-03,6.14630932,-2.81973738,-1,-0.9602796772504666
5.39538600e+03,9.99994497,-7.89880389e-09,3.55595761,3.71545177,1.86975242,-3.34509847,2.15655797e-03,6.15722169,-2.78532159,-1,-0.9587902898583199
5.58770053e+03,9.99994337,-8.67019120e-09,3.57978482,3.71656787,1.87943382,-3.34509847,2.34063683e-03,6.16846334,-2.75069795,-1,-0.9572862376179351
5.78430323e+03,9.99994156,-9.54181779e-09,3.60427061,3.71793020,1.88895206,-3.34509847,2.56245782e-03,6.18019924,-2.71539390,-1,-0.9557486484851705
5.98917238e+03,9.99993950,-1.04507815e-08,3.62769657,3.71964983,1.89722578,-3.34509848,2.82680426e-03,6.19268209,-2.67868646,-1,-0.9541464091533673
6.20504917e+03,9.99993713,-1.13217737e-08,3.64873772,3.72184108,1.90336385,-3.34509848,3.14094219e-03,6.20603646,-2.64035828,-1,-0.9524580813413887
6.43206008e+03,9.99993446,-1.20936835e-08,3.66686944,3.72464321,1.90682546,-3.34509848,3.52144722e-03,6.22019375,-2.60082046,-1,-0.9506826758752633
6.66744379e+03,9.99993152,-1.27244748e-08,3.68210043,3.72830724,1.90711288,-3.34509848,4.00778583e-03,6.23496490,-2.56068808,-1,-0.9488417884687028
6.90859828e+03,9.99992839,-1.31557320e-08,3.69407341,3.73298931,1.90373524,-3.34509848,4.64074486e-03,6.24999277,-2.52107221,-1,-0.946955768983002
7.15315607e+03,9.99992514,-1.34061825e-08,3.70358964,3.73852151,1.89742896,-3.34509848,5.44484664e-03,6.26507998,-2.48249419,-1,-0.9450431329905314
7.39956092e+03,9.99992182,-1.35145457e-08,3.71122773,3.74477968,1.88873166,-3.34509848,6.46072008e-03,6.27998598,-2.44540479,-1,-0.9431160515230822
7.64520774e+03,9.99991850,-1.34877635e-08,3.71712915,3.75178007,1.87768158,-3.34509849,7.75202607e-03,6.29431371,-2.41022627,-1,-0.9411948984517857
7.89113738e+03,9.99991520,-1.33486494e-08,3.72152610,3.75930607,1.86482807,-3.34509850,9.35141457e-03,6.30787826,-2.37643755,-1,-0.9392715335036508
8.14230048e+03,9.99991187,-1.31300519e-08,3.72462161,3.76701368,1.85096061,-3.34509851,1.12664071e-02,6.32069533,-2.34288236,-1,-0.9373072387451787
8.40102115e+03,9.99990852,-1.28519272e-08,3.72657002,3.77475826,1.83644564,-3.34509852,1.35294356e-02,6.33277337,-2.30877487,-1,-0.9352838377918167
8.66817036e+03,9.99990513,-1.25300734e-08,3.72756005,3.78248847,1.82148024,-3.34509853,1.61863572e-02,6.34429802,-2.27374517,-1,-0.9331945189669855
8.94420837e+03,9.99990172,-1.21803520e-08,3.72782955,3.79018660,1.80621874,-3.34509860,1.93043003e-02,6.35560752,-2.23778133,-1,-0.9310356826722349
9.22939523e+03,9.99989831,-1.18193685e-08,3.72765161,3.79785047,1.79080201,-3.34509876,2.29914311e-02,6.36699532,-2.20103881,-1,-0.9288052951101962
9.52389909e+03,9.99989489,-1.14615558e-08,3.72732138,3.80548753,1.77536278,-3.34509929,2.72601191e-02,6.37859634,-2.16363482,-1,-0.9265020412144296
9.82765598e+03,9.99989146,-1.11214342e-08,3.72716782,3.81311399,1.76003309,-3.34510002,3.23596531e-02,6.39043455,-2.12564530,-1,-0.9241264212811003
1.01403181e+04,9.99988804,-1.08124173e-08,3.72754315,3.82075563,1.74493748,-3.34510036,3.86040305e-02,6.40249111,-2.08714749,-1,-0.9216811553822133
1.04611502e+04,9.99988462,-1.05454712e-08,3.72878064,3.82844492,1.73017763,-3.34510023,4.63904364e-02,6.41473739,-2.04824425,-1,-0.9191719937562436
1.07891388e+04,9.99988121,-1.03270744e-08,3.73112768,3.83621399,1.71581301,-3.34509980,5.62525824e-02,6.42714338,-2.00904541,-1,-0.9166068626210626
1.11232091e+04,9.99987779,-1.01588945e-08,3.73469035,3.84408835,1.70184564,-3.34509958,6.89614983e-02,6.43967806,-1.96966488,-1,-0.9139941677656034
1.14625199e+04,9.99987437,-1.00362963e-08,3.73941160,3.85208220,1.68821855,-3.34509961,8.56630947e-02,6.45231898,-1.93018486,-1,-0.9113404880414203
1.18066293e+04,9.99987093,-9.95048926e-09,3.74509437,3.86019856,1.67482722,-3.34509970,1.07931831e-01,6.46505797,-1.89063360,-1,-0.9086492794571936
1.21556018e+04,9.99986747,-9.89020628e-09,3.75146911,3.86843308,1.66154554,-3.34509976,1.37820301e-01,6.47789733,-1.85100470,-1,-0.905920037571738
1.25098453e+04,9.99986398,-9.84387020e-09,3.75824458,3.87677620,1.64824705,-3.34509975,1.77875145e-01,6.49084735,-1.81125671,-1,-0.9031495722833545
1.28700405e+04,9.99986044,-9.80090390e-09,3.76515652,3.88521663,1.63482216,-3.34509978,2.31615925e-01,6.50392094,-1.77133988,-1,-0.9003325599778574
1.32369406e+04,9.99985686,-9.75302737e-09,3.77198829,3.89374201,1.62118727,-3.34509990,3.03135837e-01,6.51713198,-1.73119849,-1,-0.897463110033527
1.36113285e+04,9.99985322,-9.69402551e-09,3.77857904,3.90233958,1.60728751,-3.34510002,3.97104978e-01,6.53048947,-1.69079356,-1,-0.894535099551074
1.39939304e+04,9.99984953,-9.62002892e-09,3.78482335,3.91099682,1.59309519,-3.34510015,5.17889823e-01,6.54399508,-1.65009849,-1,-0.8915428490702054
1.43853975e+04,9.99984578,-9.52924201e-09,3.79066233,3.91970254,1.57860325,-3.34510022,6.66841273e-01,6.55764576,-1.60909814,-1,-0.8884812656901457
1.47863048e+04,9.99984198,-9.42153356e-09,3.79607519,3.92844690,1.56382094,-3.34510021,8.39761918e-01,6.57143748,-1.56778204,-1,-0.8853458524545901
1.51971906e+04,9.99983814,-9.29793616e-09,3.80107173,3.93722173,1.54876955,-3.34510044,1.02489290,6.58535994,-1.52616131,-1,-0.8821323994303577
1.56185498e+04,9.99983426,-9.16048958e-09,3.80568560,3.94602028,1.53347939,-3.34510051,1.19719767,6.59940504,-1.48424672,-1,-0.8788370361067087
1.60507073e+04,9.99983034,-9.01203133e-09,3.80997404,3.95483742,1.51798933,-3.34510169,1.32313948,6.61356209,-1.44205918,-1,-0.875457221507811
1.64939746e+04,9.99982638,-8.85571023e-09,3.81400511,3.96367006,1.50233958,-3.34510161,1.38533089,6.62782127,-1.39962571,-1,-0.8719905194564664
1.69485944e+04,9.99982240,-8.69469376e-09,3.81785412,3.97251693,1.48657036,-3.34510156,1.39172649,6.64216980,-1.35698087,-1,-0.8684350318460745
1.74148256e+04,9.99981839,-8.53200836e-09,3.82159653,3.98137801,1.47071939,-3.34510287,1.36259811,6.65659644,-1.31415548,-1,-0.8647887338731791
1.78927388e+04,9.99981436,-8.37030631e-09,3.82530485,3.99025385,1.45482188,-3.34510323,1.31800892,6.67109155,-1.27117905,-1,-0.8610510733897538
