star_age,star_mass,star_mdot,log_L,log_Teff,log_R,log_surf_z,v_wind_Km_per_s,log_center_T,log_center_Rho,phase,x
9.96892696e+01,1.79999763e+01,-2.01944599e-07,4.28730885,3.65613911,2.35405336,-3.34509857,1.97451590e-03,5.70756506,-4.77190894,-1,-1.0
1.03601072e+02,1.79999755e+01,-1.99626867e-07,4.28462646,3.65628884,2.35241270,-3.34509858,1.96967852e-03,5.70918182,-4.76579418,-1,-0.9999248782272986
1.07647140e+02,1.79999747e+01,-1.97292383e-07,4.28188264,3.65644171,2.35073505,-3.34509858,1.96485982e-03,5.71083862,-4.75951768,-1,-0.9998471780345102
1.11836523e+02,1.79999739e+01,-1.94923044e-07,4.27906896,3.65659838,2.34901487,-3.34509859,1.95991633e-03,5.71254183,-4.75305277,-1,-0.9997667256380688
1.16181217e+02,1.79999731e+01,-1.92510405e-07,4.27617817,3.65675933,2.34724758,-3.34509859,1.95478634e-03,5.71429687,-4.74637648,-1,-0.9996832906682643
1.20700175e+02,1.79999722e+01,-1.90094478e-07,4.27321218,3.65692385,2.34543554,-3.34509860,1.94981451e-03,5.71610176,-4.73949591,-1,-0.9995965091540132
1.25417731e+02,1.79999713e+01,-1.87652583e-07,4.27017253,3.65709441,2.34357460,-3.34509860,1.94478832e-03,5.71796144,-4.73239228,-1,-0.9995059137881691
1.30310533e+02,1.79999704e+01,-1.85174215e-07,4.26706610,3.65726911,2.34167197,-3.34509861,1.93955485e-03,5.71986893,-4.72508959,-1,-0.999411953019671
1.35387442e+02,1.79999695e+01,-1.82661012e-07,4.26388993,3.65744755,2.33972702,-3.34509861,1.93409608e-03,5.72182533,-4.71758425,-1,-0.9993144566829635
1.40658558e+02,1.79999686e+01,-1.80130031e-07,4.26064409,3.65763004,2.33773912,-3.34509862,1.92857503e-03,5.72383218,-4.70986816,-1,-0.9992132308188875
1.46132216e+02,1.79999676e+01,-1.77584580e-07,4.25732761,3.65781632,2.33570832,-3.34509862,1.92299326e-03,5.72589042,-4.70193520,-1,-0.9991081153631269
1.51817542e+02,1.79999666e+01,-1.75009405e-07,4.25394248,3.65800699,2.33363441,-3.34509863,1.91719097e-03,5.72800120,-4.69378058,-1,-0.998998935061099
1.57724458e+02,1.79999656e+01,-1.72413320e-07,4.25049930,3.65820312,2.33152055,-3.34509863,1.91126045e-03,5.73016185,-4.68541507,-1,-0.9988854993719349
1.63861262e+02,1.79999645e+01,-1.69821566e-07,4.24699141,3.65840218,2.32936850,-3.34509864,1.90536240e-03,5.73237182,-4.67684045,-1,-0.9987676489418619
1.70237190e+02,1.79999635e+01,-1.67234206e-07,4.24340332,3.65860643,2.32716596,-3.34509864,1.89964006e-03,5.73464798,-4.66799032,-1,-0.9986452064038706
1.76859683e+02,1.79999624e+01,-1.64650904e-07,4.23975695,3.65881480,2.32492603,-3.34509864,1.89395937e-03,5.73697465,-4.65892200,-1,-0.9985180288619112
1.83738241e+02,1.79999613e+01,-1.62039132e-07,4.23604422,3.65902530,2.32264866,-3.34509865,1.88786396e-03,5.73935378,-4.64962726,-1,-0.9983859338791511
1.90882713e+02,1.79999601e+01,-1.59420681e-07,4.23226207,3.65924214,2.32032391,-3.34509865,1.88179770e-03,5.74180034,-4.64004741,-1,-0.998248732316604
1.98301672e+02,1.79999590e+01,-1.56805775e-07,4.22843875,3.65946532,2.31796589,-3.34509866,1.87576244e-03,5.74429692,-4.63025166,-1,-0.9981062595394313
2.06004664e+02,1.79999578e+01,-1.54201023e-07,4.22455729,3.65969020,2.31557540,-3.34509866,1.86965401e-03,5.74684465,-4.62023270,-1,-0.9979583322274217
2.14000682e+02,1.79999566e+01,-1.51605535e-07,4.22061956,3.65991940,2.31314814,-3.34509867,1.86358246e-03,5.74945172,-4.60995620,-1,-0.9978047776801081
2.22298674e+02,1.79999553e+01,-1.49007141e-07,4.21662699,3.66015267,2.31068531,-3.34509867,1.85736533e-03,5.75211869,-4.59942214,-1,-0.9976454240611979
2.30949783e+02,1.79999541e+01,-1.46428622e-07,4.21255815,3.66039182,2.30817258,-3.34509868,1.85140520e-03,5.75487032,-4.58852690,-1,-0.9974792892268022
2.39927824e+02,1.79999528e+01,-1.43846563e-07,4.20844274,3.66063570,2.30562711,-3.34509868,1.84522607e-03,5.75768439,-4.57736308,-1,-0.997306876030444
2.49242145e+02,1.79999514e+01,-1.41272057e-07,4.20429447,3.66088366,2.30305707,-3.34509868,1.83893761e-03,5.76055202,-4.56596340,-1,-0.9971280049542798
2.58902590e+02,1.79999501e+01,-1.38741010e-07,4.20011089,3.66113399,2.30046461,-3.34509869,1.83290619e-03,5.76347372,-4.55432571,-1,-0.9969424869553429
2.68948994e+02,1.79999487e+01,-1.36237481e-07,4.19587989,3.66138720,2.29784269,-3.34509869,1.82696171e-03,5.76646598,-4.54238272,-1,-0.9967495570471875
2.79398983e+02,1.79999473e+01,-1.33726203e-07,4.19160503,3.66164834,2.29518299,-3.34509870,1.82084285e-03,5.76954640,-4.53007325,-1,-0.9965488767422749
2.90230663e+02,1.79999459e+01,-1.31252007e-07,4.18729914,3.66191258,2.29250156,-3.34509871,1.81491751e-03,5.77269220,-4.51748010,-1,-0.9963408664902913
3.01468285e+02,1.79999445e+01,-1.28829031e-07,4.18296463,3.66217916,2.28980115,-3.34509871,1.80932655e-03,5.77590509,-4.50459663,-1,-0.9961250605780121
3.13180851e+02,1.79999430e+01,-1.26417753e-07,4.17862199,3.66245120,2.28708575,-3.34509872,1.80353062e-03,5.77919109,-4.49139975,-1,-0.9959001338995066
3.25316454e+02,1.79999415e+01,-1.24048213e-07,4.17428046,3.66272547,2.28436645,-3.34509872,1.79786811e-03,5.78253105,-4.47796056,-1,-0.9956670832704256
3.37913259e+02,1.79999399e+01,-1.21734423e-07,4.16992082,3.66300058,2.28163641,-3.34509873,1.79250492e-03,5.78594562,-4.46420706,-1,-0.9954251757747982
3.51028429e+02,1.79999384e+01,-1.19439491e-07,4.16556075,3.66328515,2.27888722,-3.34509873,1.78723477e-03,5.78945883,-4.45003449,-1,-0.9951733136613949
3.64609439e+02,1.79999368e+01,-1.17190399e-07,4.16119409,3.66356921,2.27613578,-3.34509874,1.78207177e-03,5.79304381,-4.43555573,-1,-0.9949125056138629
3.78746746e+02,1.79999351e+01,-1.14985114e-07,4.15685539,3.66385892,2.27338701,-3.34509875,1.77709305e-03,5.79671412,-4.42072206,-1,-0.9946410145070872
3.93414891e+02,1.79999335e+01,-1.12813692e-07,4.15253143,3.66414920,2.27064446,-3.34509875,1.77201805e-03,5.80046653,-4.40555316,-1,-0.9943593292525762
4.08642628e+02,1.79999318e+01,-1.10708071e-07,4.14825869,3.66444650,2.26791350,-3.34509876,1.76755029e-03,5.80430433,-4.39003790,-1,-0.9940668976620464
4.24478265e+02,1.79999301e+01,-1.08677305e-07,4.14401793,3.66474192,2.26520227,-3.34509877,1.76344383e-03,5.80823341,-4.37415813,-1,-0.9937627920346007
4.40891662e+02,1.79999283e+01,-1.06695668e-07,4.13985969,3.66504571,2.26251559,-3.34509878,1.75971466e-03,5.81224689,-4.35794385,-1,-0.9934475911750963
4.57984918e+02,1.79999265e+01,-1.04786635e-07,4.13577706,3.66534716,2.25987135,-3.34509878,1.75621411e-03,5.81634759,-4.34138953,-1,-0.9931193343868805
4.75682690e+02,1.79999247e+01,-1.02949584e-07,4.13177669,3.66565022,2.25726505,-3.34509879,1.75322249e-03,5.82053468,-4.32449649,-1,-0.9927794685476692
4.94128729e+02,1.79999228e+01,-1.01172806e-07,4.12788948,3.66596122,2.25469945,-3.34509880,1.75067859e-03,5.82485255,-4.30711843,-1,-0.992425233080919
5.13214186e+02,1.79999209e+01,-9.94798813e-08,4.12411833,3.66626939,2.25219754,-3.34509881,1.74862451e-03,5.82924318,-4.28945305,-1,-0.992058718309453
5.33122804e+02,1.79999189e+01,-9.78721050e-08,4.12051348,3.66657883,2.24977622,-3.34509881,1.74703518e-03,5.83374550,-4.27137278,-1,-0.9916763956552733
5.53716944e+02,1.79999170e+01,-9.63329996e-08,4.11705013,3.66689343,2.24741536,-3.34509882,1.74607016e-03,5.83836565,-4.25285980,-1,-0.991280908320826
5.75187229e+02,1.79999149e+01,-9.48968464e-08,4.11379319,3.66721103,2.24515170,-3.34509883,1.74595599e-03,5.84312621,-4.23384679,-1,-0.9908685956054384
5.97412093e+02,1.79999128e+01,-9.35583611e-08,4.11073581,3.66752448,2.24299609,-3.34509884,1.74645733e-03,5.84798555,-4.21450436,-1,-0.9904417920476393
6.20570666e+02,1.79999107e+01,-9.23343560e-08,4.10795008,3.66784288,2.24096642,-3.34509885,1.74808017e-03,5.85299827,-4.19461642,-1,-0.9899970576569159
6.44561082e+02,1.79999085e+01,-9.12065563e-08,4.10544074,3.66816429,2.23906895,-3.34509886,1.75050074e-03,5.85813856,-4.17429424,-1,-0.9895363486554174
6.69526802e+02,1.79999062e+01,-9.02176699e-08,4.10326579,3.66848279,2.23734447,-3.34509887,1.75408012e-03,5.86343145,-4.15347728,-1,-0.9890569100357248
6.95433346e+02,1.79999039e+01,-8.93554962e-08,4.10145529,3.66880058,2.23580363,-3.34509887,1.75871894e-03,5.86887559,-4.13218411,-1,-0.988559403947522
7.22320973e+02,1.79999015e+01,-8.86379939e-08,4.10010434,3.66912340,2.23448253,-3.34509897,1.76476829e-03,5.87446224,-4.11046109,-1,-0.9880430572619191
7.50299630e+02,1.79998991e+01,-8.80989416e-08,4.09923353,3.66944108,2.23341176,-3.34509904,1.77245797e-03,5.88025024,-4.08811793,-1,-0.9875057585702357
7.79261010e+02,1.79998965e+01,-8.77168500e-08,4.09888271,3.66975856,2.23260139,-3.34509907,1.78152454e-03,5.88620625,-4.06527451,-1,-0.9869495877867938
8.09424005e+02,1.79998939e+01,-8.75694681e-08,4.09925319,3.67007932,2.23214511,-3.34509906,1.79310857e-03,5.89237483,-4.04181521,-1,-0.9863703413365172
8.40667004e+02,1.79998911e+01,-8.76542480e-08,4.10032233,3.67039613,2.23204605,-3.34509905,1.80694703e-03,5.89874111,-4.01779275,-1,-0.9857703546221098
8.73086635e+02,1.79998883e+01,-8.80282360e-08,4.10226558,3.67071109,2.23238776,-3.34509903,1.82375589e-03,5.90530150,-3.99321601,-1,-0.9851477720113305
9.06706894e+02,1.79998853e+01,-8.87554996e-08,4.10522618,3.67102510,2.23324005,-3.34509901,1.84440281e-03,5.91211561,-3.96798819,-1,-0.9845021326879435
9.41514158e+02,1.79998822e+01,-8.99059250e-08,4.10932784,3.67133869,2.23466370,-3.34509899,1.86988221e-03,5.91919087,-3.94205301,-1,-0.9838336982663672
9.77481832e+02,1.79998789e+01,-9.15662771e-08,4.11473350,3.67165175,2.23674041,-3.34509897,1.90124316e-03,5.92652436,-3.91547287,-1,-0.9831429794737142
1.01467409e+03,1.79998754e+01,-9.39211676e-08,4.12179082,3.67196514,2.23964228,-3.34509896,1.94078528e-03,5.93415115,-3.88820107,-1,-0.9824287439203725
1.05295930e+03,1.79998718e+01,-9.70795839e-08,4.13066131,3.67227946,2.24344888,-3.34509894,1.98957709e-03,5.94206167,-3.86029605,-1,-0.9816935194510986
1.09226152e+03,1.79998678e+01,-1.01259625e-07,4.14170154,3.67259898,2.24832997,-3.34509892,2.04997910e-03,5.95024278,-3.83182981,-1,-0.9809387644467303
1.13237401e+03,1.79998636e+01,-1.06646512e-07,4.15507386,3.67292998,2.25435411,-3.34509889,2.12403091e-03,5.95871403,-3.80276639,-1,-0.9801684491168287
1.17309439e+03,1.79998591e+01,-1.13562677e-07,4.17109647,3.67327418,2.26167704,-3.34509887,2.21470506e-03,5.96745077,-3.77326303,-1,-0.9793864599420499
1.21411984e+03,1.79998542e+01,-1.22303114e-07,4.18991899,3.67364972,2.27033720,-3.34509884,2.32526083e-03,5.97642294,-3.74348484,-1,-0.9785986122404707
1.25513946e+03,1.79998489e+01,-1.33276993e-07,4.21161421,3.67407968,2.28032489,-3.34509881,2.46059928e-03,5.98559290,-3.71358971,-1,-0.9778108764974953
1.29587598e+03,1.79998432e+01,-1.46801865e-07,4.23600720,3.67460819,2.29146437,-3.34509878,2.62602213e-03,5.99492445,-3.68371874,-1,-0.9770285773721393
1.33598522e+03,1.79998369e+01,-1.63325360e-07,4.26301747,3.67534849,2.30348892,-3.34509874,2.83389255e-03,6.00435351,-3.65405710,-1,-0.9762583244548384
1.37528379e+03,1.79998300e+01,-1.83311114e-07,4.29220273,3.67650315,2.31577222,-3.34509871,3.10982408e-03,6.01385416,-3.62468715,-1,-0.9755036395446217
1.41626353e+03,1.79998220e+01,-2.05046804e-07,4.32008628,3.67832139,2.32607751,-3.34509868,3.47636593e-03,6.02399827,-3.59386772,-1,-0.9747166696522668
1.46137891e+03,1.79998122e+01,-2.24007960e-07,4.34315007,3.68077887,2.33269444,-3.34509866,3.90368126e-03,6.03541373,-3.55966882,-1,-0.97385027943744
1.50897565e+03,1.79998011e+01,-2.40852768e-07,4.36313971,3.68387091,2.33650519,-3.34509864,4.42236520e-03,6.04754912,-3.52379231,-1,-0.9729362374900229
1.55767425e+03,1.79997889e+01,-2.55894722e-07,4.38112906,3.68782775,2.33758618,-3.34509863,5.09796172e-03,6.06007684,-3.48712627,-1,-0.9720010355585359
1.60617820e+03,1.79997761e+01,-2.68731763e-07,4.39737310,3.69291479,2.33553412,-3.34509862,6.02226072e-03,6.07266662,-3.45056423,-1,-0.971069571661735
1.65419913e+03,1.79997629e+01,-2.78970097e-07,4.41193931,3.69893918,2.33076844,-3.34509861,7.23727023e-03,6.08511736,-3.41472791,-1,-0.9701473836216722
1.70217769e+03,1.79997493e+01,-2.87442610e-07,4.42530352,3.70551674,2.32429543,-3.34509860,8.76062876e-03,6.09756403,-3.37913633,-1,-0.9692260092498841
1.75048652e+03,1.79997352e+01,-2.94425921e-07,4.43761315,3.71246328,2.31655717,-3.34509860,1.06353269e-02,6.11004527,-3.34369582,-1,-0.9682982924135916
1.79922766e+03,1.79997207e+01,-3.00112771e-07,4.44901720,3.71969625,2.30779325,-3.34509862,1.29389999e-02,6.12259610,-3.30825316,-1,-0.9673622735491708
1.84848154e+03,1.79997058e+01,-3.04568451e-07,4.45960349,3.72716309,2.29815272,-3.34509860,1.57890243e-02,6.13523482,-3.27273004,-1,-0.9664164080887833
1.89826822e+03,1.79996905e+01,-3.07978826e-07,4.46948413,3.73482975,2.28775971,-3.34509859,1.93433179e-02,6.14795907,-3.23710330,-1,-0.9654603108026535
1.94877888e+03,1.79996749e+01,-3.10190927e-07,4.47857308,3.74265918,2.27664533,-3.34509862,2.37444494e-02,6.16073760,-3.20151205,-1,-0.9644903102935488
2.00006626e+03,1.79996590e+01,-3.11342187e-07,4.48692534,3.75062861,2.26488260,-3.34509859,2.92039425e-02,6.17355700,-3.16594990,-1,-0.9635053937489889
2.05218790e+03,1.79996427e+01,-3.11420104e-07,4.49456532,3.75871703,2.25252576,-3.34509859,3.60066934e-02,6.18643321,-3.13034241,-1,-0.9625044561778827
2.10520321e+03,1.79996263e+01,-3.10531570e-07,4.50154424,3.76690667,2.23963593,-3.34509859,4.45067112e-02,6.19935941,-3.09469839,-1,-0.9614863566778893
2.15918056e+03,1.79996095e+01,-3.08755153e-07,4.50790169,3.77518222,2.22626356,-3.34509859,5.51576804e-02,6.21232917,-3.05902509,-1,-0.9604497822799282
2.21419266e+03,1.79995926e+01,-3.06173518e-07,4.51368220,3.78352832,2.21246161,-3.34509859,6.86023023e-02,6.22533773,-3.02332862,-1,-0.9593933366700923
2.27031792e+03,1.79995756e+01,-3.02882672e-07,4.51892539,3.79193190,2.19827604,-3.34509869,8.57487780e-02,6.23838071,-2.98762345,-1,-0.9583155140723747
2.32763150e+03,1.79995583e+01,-2.98959152e-07,4.52366776,3.80038213,2.18374678,-3.34509877,1.07780845e-01,6.25145596,-2.95192833,-1,-0.9572148711233693
2.38620250e+03,1.79995409e+01,-2.94489607e-07,4.52794251,3.80887074,2.16890692,-3.34509891,1.36069104e-01,6.26455996,-2.91627564,-1,-0.9560900808351656
2.44614582e+03,1.79995235e+01,-2.89528168e-07,4.53178022,3.81738496,2.15379734,-3.34509895,1.73433396e-01,6.27769824,-2.88068752,-1,-0.9549389366822794
2.50755282e+03,1.79995059e+01,-2.84182277e-07,4.53520000,3.82591681,2.13844353,-3.34509906,2.23183505e-01,6.29087145,-2.84520794,-1,-0.953759684198495
2.57053646e+03,1.79994882e+01,-2.78461704e-07,4.53821025,3.83445799,2.12286630,-3.34509858,2.89667983e-01,6.30407803,-2.80990207,-1,-0.9525501541138502
2.63522709e+03,1.79994704e+01,-2.72408823e-07,4.54080686,3.84299924,2.10708210,-3.34509860,3.79006044e-01,6.31731325,-2.77484458,-1,-0.9513078432029594
2.70178028e+03,1.79994525e+01,-2.66018444e-07,4.54296751,3.85153091,2.09109910,-3.34509853,5.00033720e-01,6.33056920,-2.74011348,-1,-0.9500297639186551
2.77036627e+03,1.79994345e+01,-2.59319105e-07,4.54465598,3.86004273,2.07491968,-3.34509837,6.64646749e-01,6.34382556,-2.70579436,-1,-0.9487126469928925
2.84114444e+03,1.79994164e+01,-2.52283238e-07,4.54582790,3.86852456,2.05854197,-3.34509841,8.84315582e-01,6.35703357,-2.67193465,-1,-0.9473534317117321
2.91431580e+03,1.79993983e+01,-2.44913609e-07,4.54642869,3.87696426,2.04196297,-3.34509849,1.16788242,6.37010630,-2.63852932,-1,-0.9459482579038294
2.99005496e+03,1.79993801e+01,-2.37223342e-07,4.54642113,3.88534727,2.02519318,-3.34509853,1.51664317,6.38292816,-2.60541828,-1,-0.9444937723801963
3.06853095e+03,1.79993618e+01,-2.29251905e-07,4.54579202,3.89365869,2.00825577,-3.34509856,1.92104806,6.39537846,-2.57231357,-1,-0.942986729109479
3.14985988e+03,1.79993436e+01,-2.21076687e-07,4.54457226,3.90188764,1.99118799,-3.34509859,2.35521565,6.40739047,-2.53886983,-1,-0.9414248983295024
3.23412280e+03,1.79993254e+01,-2.12804900e-07,4.54283821,3.91002810,1.97404006,-3.34509859,2.78549328,6.41901875,-2.50481882,-1,-0.9398067235660239
3.32131605e+03,1.79993072e+01,-2.04568125e-07,4.54074547,3.91808561,1.95687867,-3.34509861,3.19136882,6.43044496,-2.47001308,-1,-0.938132275105234
3.41170854e+03,1.79992892e+01,-1.96482410e-07,4.53831757,3.92604657,1.93974279,-3.34509863,3.56058639,6.44183372,-2.43461687,-1,-0.9363963888325296
3.50533493e+03,1.79992712e+01,-1.88613315e-07,4.53571809,3.93392006,1.92269608,-3.34509863,3.88853236,6.45332866,-2.39864436,-1,-0.9345983991415292
3.60228214e+03,1.79992534e+01,-1.81067916e-07,4.53307555,3.94171019,1.90579455,-3.34509868,4.17089934,6.46497958,-2.36214004,-1,-0.9327366368312313
3.70264843e+03,1.79992356e+01,-1.73931933e-07,4.53053481,3.94942277,1.88909901,-3.34509871,4.40453835,6.47679459,-2.32512622,-1,-0.9308092149286677
3.80649216e+03,1.79992180e+01,-1.67285163e-07,4.52826246,3.95706772,1.87267295,-3.34509874,4.58884534,6.48876793,-2.28763224,-1,-0.9288150126955684
3.91379603e+03,1.79992004e+01,-1.61199271e-07,4.52643814,3.96465924,1.85657774,-3.34509878,4.73186855,6.50089263,-2.24969761,-1,-0.9267543623590079
4.02450149e+03,1.79991829e+01,-1.55739937e-07,4.52524936,3.97221546,1.84087091,-3.34509887,4.84373327,6.51315929,-2.21136923,-1,-0.9246283883059929
4.13845981e+03,1.79991655e+01,-1.50949693e-07,4.52486123,3.97975762,1.82559253,-3.34509905,4.93386134,6.52555493,-2.17271177,-1,-0.9224399467291712
4.25544760e+03,1.79991481e+01,-1.46836253e-07,4.52538538,3.98730751,1.81075481,-3.34509939,5.00824003,6.53806202,-2.13380618,-1,-0.9201933275826578
4.37523910e+03,1.79991308e+01,-1.43373416e-07,4.52686432,3.99488420,1.79634091,-3.34509897,5.06993883,6.55066271,-2.09473154,-1,-0.917892866333757
4.49748701e+03,1.79991136e+01,-1.37331983e-07,4.52929904,4.00251104,1.78230459,-3.34509888,5.00497545,6.56335382,-2.05550759,-1,-0.9155452324890008
4.62232862e+03,1.79990984e+01,-1.11186117e-07,4.53249481,4.01017981,1.76856493,-3.34509911,4.15481829,6.57610492,-2.01626802,-1,-0.9131477895480961
4.74956708e+03,1.79990862e+01,-8.54523143e-08,4.53633920,4.01790342,1.75503991,-3.34509914,3.25942321,6.58892502,-1.97698018,-1,-0.9107043177942586
4.87921735e+03,1.79990772e+01,-6.00016362e-08,4.54066167,4.02568307,1.74164184,-3.34509904,2.32711585,6.60181331,-1.93765076,-1,-0.9082145299374864
5.01136169e+03,1.79990713e+01,-3.46728023e-08,4.54529323,4.03351698,1.72828981,-3.34509942,1.36315519,6.61477484,-1.89826407,-1,-0.9056768462668455
5.14613097e+03,1.79990686e+01,-9.38743933e-09,4.55008434,4.04140172,1.71491588,-3.34509945,3.73381327e-01,6.62781210,-1.85881111,-1,-0.9030887535709341
5.28368668e+03,1.79990680e+01,-4.38793086e-09,4.55491091,4.04933264,1.70146733,-3.34510051,1.76462267e-01,6.64092829,-1.81927211,-1,-0.9004471506156323
5.42419738e+03,1.79990674e+01,-4.58557884e-09,4.55967946,4.05730465,1.68790757,-3.34510015,1.86491846e-01,6.65412458,-1.77963677,-1,-0.8977488003954085
5.56781510e+03,1.79990667e+01,-4.78984886e-09,4.56432414,4.06531250,1.67421422,-3.34510107,1.97068230e-01,6.66740228,-1.73988809,-1,-0.8949907833448207
5.71469900e+03,1.79990660e+01,-4.99954538e-09,4.56880258,4.07335145,1.66037555,-3.34510111,2.08120316e-01,6.68075958,-1.70002822,-1,-0.8921700429747825
5.86500846e+03,1.79990652e+01,-5.21378090e-09,4.57309020,4.08141678,1.64638869,-3.34510114,2.19581511e-01,6.69418999,-1.66006212,-1,-0.8892835185713548
6.01891752e+03,1.79990644e+01,-5.43192751e-09,4.57717588,4.08950401,1.63225707,-3.34510098,2.31484995e-01,6.70768956,-1.61999009,-1,-0.8863278678917594
6.17656809e+03,1.79990635e+01,-5.65360538e-09,4.58106047,4.09760877,1.61798985,-3.34510069,2.43939790e-01,6.72125496,-1.57981540,-1,-0.8833003657137908
6.33810861e+03,1.79990626e+01,-5.87860733e-09,4.58475151,4.10572719,1.60359853,-3.34510043,2.57084700e-01,6.73488165,-1.53953810,-1,-0.8801981614139257
6.50368647e+03,1.79990616e+01,-6.10693836e-09,4.58826084,4.11385621,1.58909515,-3.34510025,2.70975851e-01,6.74856242,-1.49917398,-1,-0.8770184245327118
6.67346291e+03,1.79990605e+01,-6.33871184e-09,4.59160183,4.12199310,1.57449186,-3.34510018,2.85603062e-01,6.76229272,-1.45872537,-1,-0.8737580586369986
6.84759506e+03,1.79990594e+01,-6.57411171e-09,4.59478900,4.13013561,1.55980044,-3.34510031,3.00953067e-01,6.77606712,-1.41820627,-1,-0.8704140462215701
