star_age,star_mass,star_mdot,log_L,log_Teff,log_R,log_surf_z,v_wind_Km_per_s,log_center_T,log_center_Rho,phase,x
8.42133860e+01,2.59999440e+01,-5.77685901e-07,4.54567140,3.65617248,2.48316789,-3.34509854,3.88249273e-03,5.71343166,-4.93561543,-1,-1.0
8.74384645e+01,2.59999421e+01,-5.72189728e-07,4.54347406,3.65631127,2.48179165,-3.34509854,3.87603457e-03,5.71511805,-4.92883311,-1,-0.9999063088773928
9.07565860e+01,2.59999402e+01,-5.66635461e-07,4.54124385,3.65645263,2.48039382,-3.34509854,3.86943578e-03,5.71684259,-4.92189276,-1,-0.9998099147808517
9.41793460e+01,2.59999383e+01,-5.61025805e-07,4.53897807,3.65659681,2.47897256,-3.34509854,3.86272541e-03,5.71860913,-4.91477899,-1,-0.9997104808517816
9.77623859e+01,2.59999363e+01,-5.55395999e-07,4.53666686,3.65674475,2.47752108,-3.34509854,3.85614715e-03,5.72043403,-4.90742767,-1,-0.9996063906627902
1.01482723e+02,2.59999343e+01,-5.49784998e-07,4.53431115,3.65689697,2.47603878,-3.34509854,3.85007621e-03,5.72231827,-4.89983120,-1,-0.9994983118797851
1.05326354e+02,2.59999322e+01,-5.44099891e-07,4.53192335,3.65705240,2.47453404,-3.34509855,3.84371374e-03,5.72424950,-4.89204258,-1,-0.9993866513098866
1.09304807e+02,2.59999301e+01,-5.38299550e-07,4.52950515,3.65721084,2.47300804,-3.34509855,3.83671346e-03,5.72622857,-4.88405942,-1,-0.9992710740525238
1.13449983e+02,2.59999279e+01,-5.32521794e-07,4.52704543,3.65737278,2.47145431,-3.34509855,3.83004979e-03,5.72827113,-4.87581541,-1,-0.9991506533580061
1.17766237e+02,2.59999256e+01,-5.26835952e-07,4.52455111,3.65753880,2.46987511,-3.34509855,3.82426140e-03,5.73037791,-4.86730992,-1,-0.9990252627100832
1.22236234e+02,2.59999233e+01,-5.21117675e-07,4.52202900,3.65770838,2.46827490,-3.34509855,3.81839579e-03,5.73254179,-4.85857115,-1,-0.998895405704438
1.26866714e+02,2.59999209e+01,-5.15328962e-07,4.51948055,3.65788150,2.46665442,-3.34509855,3.81215085e-03,5.73476487,-4.84959105,-1,-0.9987608865386535
1.31667972e+02,2.59999184e+01,-5.09490974e-07,4.51690726,3.65805822,2.46501433,-3.34509855,3.80564756e-03,5.73705027,-4.84035821,-1,-0.9986214061347047
1.36648778e+02,2.59999159e+01,-5.03694619e-07,4.51431193,3.65823854,2.46335603,-3.34509856,3.79950934e-03,5.73940008,-4.83086541,-1,-0.9984767097170428
1.41814946e+02,2.59999134e+01,-4.98001732e-07,4.51169845,3.65842239,2.46168160,-3.34509856,3.79416986e-03,5.74181550,-4.82110596,-1,-0.9983266283842949
1.47196572e+02,2.59999107e+01,-4.92249340e-07,4.50905853,3.65861037,2.45998568,-3.34509856,3.78845749e-03,5.74431616,-4.81100864,-1,-0.9981702878234708
1.52778794e+02,2.59999080e+01,-4.86485197e-07,4.50642072,3.65880453,2.45827846,-3.34509856,3.78280544e-03,5.74688574,-4.80063241,-1,-0.9980081197876162
1.58569665e+02,2.59999052e+01,-4.80825602e-07,4.50377624,3.65899883,2.45656760,-3.34509856,3.77749840e-03,5.74951905,-4.78999935,-1,-0.9978398903306082
1.64577888e+02,2.59999024e+01,-4.75256236e-07,4.50113088,3.65919767,2.45484725,-3.34509856,3.77288258e-03,5.75223189,-4.77904907,-1,-0.9976653466233019
1.70812074e+02,2.59998994e+01,-4.69752763e-07,4.49849858,3.65939944,2.45312757,-3.34509857,3.76849460e-03,5.75501609,-4.76781793,-1,-0.9974842385092261
1.77279478e+02,2.59998964e+01,-4.64279333e-07,4.49587837,3.65960527,2.45140580,-3.34509857,3.76419202e-03,5.75788323,-4.75626198,-1,-0.9972963552247994
1.83989739e+02,2.59998934e+01,-4.58869179e-07,4.49327958,3.65981506,2.44968682,-3.34509857,3.76015160e-03,5.76083412,-4.74437871,-1,-0.9971014167493246
1.90953187e+02,2.59998902e+01,-4.53609199e-07,4.49071189,3.66002803,2.44797704,-3.34509857,3.75694516e-03,5.76386858,-4.73217214,-1,-0.9968991229879987
1.98179595e+02,2.59998870e+01,-4.48509098e-07,4.48819355,3.66024397,2.44628598,-3.34509857,3.75452753e-03,5.76698142,-4.71965947,-1,-0.9966891900273167
2.05676964e+02,2.59998836e+01,-4.43513739e-07,4.48571898,3.66046277,2.44461111,-3.34509858,3.75252174e-03,5.77018748,-4.70678925,-1,-0.9964713854317976
2.13455772e+02,2.59998802e+01,-4.38635869e-07,4.48330683,3.66068541,2.44295974,-3.34509858,3.75098860e-03,5.77348780,-4.69356164,-1,-0.9962454048071198
2.21527528e+02,2.59998767e+01,-4.33965293e-07,4.48096924,3.66091064,2.44134050,-3.34509858,3.75054651e-03,5.77688360,-4.67997641,-1,-0.9960109138075826
2.29901093e+02,2.59998731e+01,-4.29428104e-07,4.47872255,3.66113935,2.43975973,-3.34509858,3.75054568e-03,5.78037805,-4.66602352,-1,-0.9957676550140141
2.38588222e+02,2.59998694e+01,-4.25113305e-07,4.47657109,3.66136825,2.43822620,-3.34509858,3.75140958e-03,5.78397496,-4.65169825,-1,-0.9955152869342161
2.47621813e+02,2.59998656e+01,-4.21056769e-07,4.47457541,3.66160629,2.43675228,-3.34509859,3.75402233e-03,5.78768485,-4.63695989,-1,-0.9952528538548466
2.56995953e+02,2.59998617e+01,-4.17240282e-07,4.47270618,3.66184238,2.43534548,-3.34509859,3.75736205e-03,5.79150613,-4.62182225,-1,-0.9949805275533081
2.66722034e+02,2.59998577e+01,-4.13695574e-07,4.47101305,3.66208341,2.43401685,-3.34509859,3.76210583e-03,5.79544344,-4.60627534,-1,-0.9946979770828444
2.76812990e+02,2.59998535e+01,-4.10481885e-07,4.46949904,3.66232368,2.43277930,-3.34509859,3.76826506e-03,5.79950154,-4.59030485,-1,-0.9944048267003593
2.87281265e+02,2.59998493e+01,-4.07626132e-07,4.46821095,3.66256798,2.43164667,-3.34509859,3.77631682e-03,5.80368578,-4.57390173,-1,-0.9941007148976513
2.98140032e+02,2.59998449e+01,-4.05147548e-07,4.46717185,3.66281427,2.43063453,-3.34509859,3.78613752e-03,5.80800215,-4.55705436,-1,-0.9937852589884822
3.09404921e+02,2.59998403e+01,-4.03087368e-07,4.46641887,3.66306301,2.42976058,-3.34509860,3.79797486e-03,5.81245750,-4.53974586,-1,-0.9934580049087895
3.21089652e+02,2.59998356e+01,-4.01504256e-07,4.46598891,3.66331350,2.42904460,-3.34509860,3.81211753e-03,5.81705786,-4.52196295,-1,-0.9931185540815454
3.33207847e+02,2.59998308e+01,-4.00446096e-07,4.46592262,3.66356474,2.42850899,-3.34509860,3.82869550e-03,5.82181015,-4.50369250,-1,-0.9927665107767012
3.45772945e+02,2.59998258e+01,-3.99990894e-07,4.46627733,3.66381872,2.42817838,-3.34509860,3.84831772e-03,5.82672216,-4.48491315,-1,-0.9924014845805053
3.58797972e+02,2.59998205e+01,-4.00242729e-07,4.46710283,3.66407363,2.42808131,-3.34509860,3.87150663e-03,5.83180120,-4.46561058,-1,-0.9920230970771878
3.72339675e+02,2.59998151e+01,-4.01375328e-07,4.46852174,3.66433031,2.42827741,-3.34509860,3.89920631e-03,5.83707290,-4.44572037,-1,-0.991629699720788
3.86377972e+02,2.59998094e+01,-4.03493880e-07,4.47057875,3.66458826,2.42879000,-3.34509860,3.93200293e-03,5.84253259,-4.42526267,-1,-0.9912218759095467
4.00911878e+02,2.59998035e+01,-4.06770023e-07,4.47334555,3.66484780,2.42965432,-3.34509860,3.97107651e-03,5.84818580,-4.40423108,-1,-0.9907996542585059
4.15941903e+02,2.59997974e+01,-4.11378674e-07,4.47690932,3.66510956,2.43091269,-3.34509860,4.01742418e-03,5.85404603,-4.38260597,-1,-0.9903630199517556
4.31508622e+02,2.59997909e+01,-4.17721716e-07,4.48144670,3.66537303,2.43265444,-3.34509860,4.07336945e-03,5.86013480,-4.36033910,-1,-0.9899107942529332
4.47613637e+02,2.59997840e+01,-4.26175326e-07,4.48709789,3.66563759,2.43495092,-3.34509860,4.14102315e-03,5.86646321,-4.33741706,-1,-0.9894429306226512
4.64230043e+02,2.59997768e+01,-4.37088090e-07,4.49400603,3.66590584,2.43786850,-3.34509860,4.22222225e-03,5.87303462,-4.31385771,-1,-0.9889602106727847
4.81347125e+02,2.59997692e+01,-4.51010582e-07,4.50237251,3.66618106,2.44150128,-3.34509860,4.32012221e-03,5.87985770,-4.28965564,-1,-0.988462945682696
4.98946575e+02,2.59997610e+01,-4.68720999e-07,4.51247544,3.66646982,2.44597523,-3.34509860,4.43893840e-03,5.88694512,-4.26481353,-1,-0.9879516675145001
5.16970656e+02,2.59997523e+01,-4.91057280e-07,4.52453070,3.66677508,2.45139235,-3.34509860,4.58287964e-03,5.89429095,-4.23937952,-1,-0.9874280534744538
5.35334176e+02,2.59997429e+01,-5.18952432e-07,4.53872394,3.66709945,2.45784022,-3.34509859,4.75621263e-03,5.90187971,-4.21343250,-1,-0.9868945784586307
5.53932321e+02,2.59997328e+01,-5.54032582e-07,4.55546987,3.66745994,2.46549222,-3.34509859,4.96731285e-03,5.90969934,-4.18706716,-1,-0.986354287397976
5.72552164e+02,2.59997220e+01,-5.98312902e-07,4.57515207,3.66789689,2.47445940,-3.34509858,5.23000008e-03,5.91768028,-4.16052112,-1,-0.9858133659929813
5.90790560e+02,2.59997104e+01,-6.55643396e-07,4.59864811,3.66849732,2.48500657,-3.34509858,5.57291038e-03,5.92568896,-4.13429730,-1,-0.9852835259299276
6.08215914e+02,2.59996982e+01,-7.30416213e-07,4.62611111,3.66946597,2.49680076,-3.34509857,6.05572699e-03,5.93356123,-4.10893961,-1,-0.9847773053904628
6.25636881e+02,2.59996845e+01,-8.19449521e-07,4.65451874,3.67091622,2.50810407,-3.34509856,6.70842370e-03,5.94167882,-4.08322604,-1,-0.9842712122968742
6.44721530e+02,2.59996679e+01,-9.04139069e-07,4.67928868,3.67273733,2.51684684,-3.34509855,7.44116660e-03,5.95079662,-4.05476156,-1,-0.983716787903988
6.65383208e+02,2.59996482e+01,-9.79430863e-07,4.70029181,3.67489351,2.52303603,-3.34509854,8.24507276e-03,5.96084316,-4.02377762,-1,-0.9831165495511024
6.86983624e+02,2.59996261e+01,-1.05041883e-06,4.71931072,3.67748321,2.52736609,-3.34509853,9.19877337e-03,5.97148338,-3.99135374,-1,-0.9824890401047989
7.09139289e+02,2.59996020e+01,-1.11810569e-06,4.73712224,3.68071021,2.52981786,-3.34509853,1.04074569e-02,5.98251877,-3.95806213,-1,-0.9818454002287595
7.31600607e+02,2.59995760e+01,-1.18178615e-06,4.75395946,3.68466182,2.53033324,-3.34509852,1.19703574e-02,5.99382269,-3.92427957,-1,-0.9811928808873992
7.54279664e+02,2.59995484e+01,-1.24100280e-06,4.76996473,3.68925360,2.52915232,-3.34509852,1.39610933e-02,6.00527832,-3.89031960,-1,-0.9805340360530794
7.77191684e+02,2.59995192e+01,-1.29683560e-06,4.78533674,3.69431772,2.52671007,-3.34509852,1.64379146e-02,6.01693135,-3.85598348,-1,-0.9798684234563639
8.00381507e+02,2.59994884e+01,-1.34997060e-06,4.80016897,3.69974942,2.52326279,-3.34509851,1.94722224e-02,6.02873744,-3.82147270,-1,-0.979194740459212
8.23875979e+02,2.59994560e+01,-1.40048186e-06,4.81446279,3.70549332,2.51892192,-3.34509852,2.31561588e-02,6.04068916,-3.78678778,-1,-0.978512207163746
8.47640311e+02,2.59994221e+01,-1.44824519e-06,4.82826191,3.71152643,2.51375525,-3.34509852,2.76328514e-02,6.05282023,-3.75176359,-1,-0.977821834218378
8.71721390e+02,2.59993866e+01,-1.49279334e-06,4.84152126,3.71781235,2.50781307,-3.34509851,3.30913691e-02,6.06506536,-3.71661983,-1,-0.9771222595180721
8.96072723e+02,2.59993497e+01,-1.53388246e-06,4.85425306,3.72434423,2.50111522,-3.34509851,3.97935147e-02,6.07746109,-3.68118446,-1,-0.9764148337218475
9.20697010e+02,2.59993114e+01,-1.57113736e-06,4.86643051,3.73110594,2.49368054,-3.34509852,4.80433271e-02,6.08997967,-3.64553797,-1,-0.9756994783925338
9.45646872e+02,2.59992717e+01,-1.60385676e-06,4.87797488,3.73807419,2.48551621,-3.34509851,5.81847525e-02,6.10255004,-3.60994666,-1,-0.9749746648477868
9.70917791e+02,2.59992308e+01,-1.63141120e-06,4.88883480,3.74523895,2.47661666,-3.34509851,7.07280461e-02,6.11518230,-3.57434079,-1,-0.9742405243391377
9.96489641e+02,2.59991888e+01,-1.65361699e-06,4.89901089,3.75259104,2.46700052,-3.34509850,8.63618886e-02,6.12788931,-3.53865965,-1,-0.9734976415430628
1.02239464e+03,2.59991457e+01,-1.67010407e-06,4.90846808,3.76011278,2.45668564,-3.34509850,1.05904879e-01,6.14062212,-3.50303611,-1,-0.972745080500767
1.04863254e+03,2.59991017e+01,-1.68070972e-06,4.91719586,3.76779230,2.44569047,-3.34509850,1.30462284e-01,6.15338243,-3.46744782,-1,-0.9719828484168492
1.07522914e+03,2.59990569e+01,-1.68523861e-06,4.92517362,3.77561379,2.43403639,-3.34509850,1.61554165e-01,6.16615053,-3.43193794,-1,-0.9712101958096236
1.10217061e+03,2.59990115e+01,-1.68408203e-06,4.93244765,3.78356764,2.42176570,-3.34509851,2.01005992e-01,6.17892856,-3.39646672,-1,-0.9704275244517061
1.12951989e+03,2.59989655e+01,-1.67716603e-06,4.93898754,3.79163376,2.40890340,-3.34509851,2.51361522e-01,6.19167529,-3.36116788,-1,-0.969633005885508
1.15727549e+03,2.59989192e+01,-1.66502210e-06,4.94485177,3.79979978,2.39550347,-3.34509854,3.16979181e-01,6.20442097,-3.32590892,-1,-0.9688266833967271
1.18549821e+03,2.59988724e+01,-1.64794812e-06,4.95004122,3.80804796,2.38160185,-3.34509860,4.02712095e-01,6.21713045,-3.29079331,-1,-0.9680067906964948
1.21421747e+03,2.59988254e+01,-1.62650279e-06,4.95460746,3.81636432,2.36725223,-3.34509859,5.17425846e-01,6.22981635,-3.25576299,-1,-0.9671724731101645
1.24346958e+03,2.59987783e+01,-1.60122699e-06,4.95859723,3.82473639,2.35250300,-3.34509853,6.71620526e-01,6.24247785,-3.22081334,-1,-0.966322675803052
1.27327520e+03,2.59987310e+01,-1.57287234e-06,4.96208022,3.83315496,2.33740734,-3.34509850,8.79735957e-01,6.25512515,-3.18590014,-1,-0.9654567985855513
1.30371653e+03,2.59986837e+01,-1.54163793e-06,4.96505305,3.84160474,2.32199420,-3.34509850,1.16330249,6.26773621,-3.15110796,-1,-0.9645724534815939
1.33481718e+03,2.59986363e+01,-1.50812732e-06,4.96758550,3.85007835,2.30631321,-3.34509851,1.55434226,6.28032540,-3.11639043,-1,-0.9636689546017028
1.36660673e+03,2.59985890e+01,-1.47278330e-06,4.96971670,3.85857190,2.29039169,-3.34509850,2.08972760,6.29288295,-3.08177676,-1,-0.9627454426231029
1.39910046e+03,2.59985419e+01,-1.43602064e-06,4.97148551,3.86708303,2.27425384,-3.34509845,2.80142203,6.30540224,-3.04729993,-1,-0.9618014736495129
1.43232888e+03,2.59984949e+01,-1.39816080e-06,4.97292189,3.87560880,2.25792051,-3.34509846,3.71427776,6.31787818,-3.01299414,-1,-0.96083616134091
1.46632699e+03,2.59984481e+01,-1.35949584e-06,4.97404913,3.88414559,2.24141054,-3.34509848,4.82794535,6.33030672,-2.97889620,-1,-0.9598484889191627
1.50113118e+03,2.59984016e+01,-1.32024648e-06,4.97488275,3.89269040,2.22473774,-3.34509849,6.08503537,6.34268579,-2.94505776,-1,-0.9588373992255224
1.53679868e+03,2.59983553e+01,-1.28059090e-06,4.97542851,3.90123677,2.20791787,-3.34509849,7.38828521,6.35501394,-2.91152403,-1,-0.9578012296824897
1.57340943e+03,2.59983093e+01,-1.24067190e-06,4.97568273,3.90977496,2.19096860,-3.34509850,8.64135445,6.36729642,-2.87832938,-1,-0.9567376579688126
1.61106530e+03,2.59982635e+01,-1.20059091e-06,4.97563218,3.91829248,2.17390829,-3.34509850,9.78413467,6.37953295,-2.84550360,-1,-0.9556437246791121
1.64986237e+03,2.59982178e+01,-1.16051753e-06,4.97528020,3.92677852,2.15676021,-3.34509851,1.07955004e+01,6.39172078,-2.81301954,-1,-0.9545166386121631
1.68997477e+03,2.59981722e+01,-1.12029604e-06,4.97454942,3.93521149,2.13952887,-3.34509851,1.16715172e+01,6.40381435,-2.78094033,-1,-0.9533513411515073
1.73148940e+03,2.59981267e+01,-1.08008561e-06,4.97344635,3.94358079,2.12223874,-3.34509851,1.23991687e+01,6.41577619,-2.74914431,-1,-0.9521453077822982
1.77452896e+03,2.59980812e+01,-1.03998756e-06,4.97195617,3.95187199,2.10491126,-3.34509853,1.29644526e+01,6.42754636,-2.71747556,-1,-0.9508949739709147
1.81918556e+03,2.59980359e+01,-1.00017395e-06,4.97008955,3.96007286,2.08757620,-3.34509854,1.33704079e+01,6.43907874,-2.68569491,-1,-0.9495976638478226
1.86553025e+03,2.59979906e+01,-9.60882862e-07,4.96788265,3.96817494,2.07026860,-3.34509855,1.36440665e+01,6.45036575,-2.65356500,-1,-0.948251313353415
1.91364026e+03,2.59979455e+01,-9.22409873e-07,4.96539118,3.97617319,2.05302637,-3.34509859,1.38125243e+01,6.46146390,-2.62089812,-1,-0.9468536788941175
1.96353654e+03,2.59979005e+01,-8.85023650e-07,4.96269158,3.98407002,2.03588291,-3.34509863,1.39007911e+01,6.47248511,-2.58764327,-1,-0.9454041518555916
2.01527857e+03,2.59978559e+01,-8.48978441e-07,4.95985873,3.99186832,2.01886989,-3.34509878,1.39239363e+01,6.48354160,-2.55382851,-1,-0.9439010042960295
2.06890570e+03,2.59978114e+01,-8.14458072e-07,4.95696608,3.99957252,2.00201516,-3.34509885,1.38957910e+01,6.49470879,-2.51950301,-1,-0.9423430930663037
2.12448147e+03,2.59977701e+01,-6.79172974e-07,4.95408701,4.00718606,1.98534854,-3.34509865,1.20142294e+01,6.50601739,-2.48470310,-1,-0.9407285722783432
2.18204757e+03,2.59977364e+01,-5.22532801e-07,4.95129592,4.01471346,1.96889819,-3.34509863,9.55546206,6.51747100,-2.44944806,-1,-0.9390562308041392
2.24167367e+03,2.59977105e+01,-3.77225516e-07,4.94867661,4.02215888,1.95269770,-3.34509871,7.10911173,6.52907378,-2.41374090,-1,-0.9373240446741942
2.30337786e+03,2.59976922e+01,-2.42178194e-07,4.94632093,4.02953024,1.93677713,-3.34509884,4.69017790,6.54081966,-2.37760955,-1,-0.9355314883594681
2.36718826e+03,2.59976816e+01,-1.16348734e-07,4.94433219,4.03683633,1.92117060,-3.34509870,2.30985854,6.55270564,-2.34107175,-1,-0.9336777449513591
2.43312247e+03,2.59976783e+01,-1.91899969e-08,4.94282523,4.04408849,1.90591279,-3.34509883,3.89741796e-01,6.56472692,-2.30415190,-1,-0.9317623031557214
2.50114233e+03,2.59976770e+01,-1.94300106e-08,4.94190185,4.05130103,1.89102602,-3.34509894,4.03127894e-01,6.57687204,-2.26690082,-1,-0.929786271551226
2.57119574e+03,2.59976756e+01,-1.97375267e-08,4.94165619,4.05848956,1.87652613,-3.34509910,4.17886023e-01,6.58913191,-2.22935480,-1,-0.9277511636847489
2.64320647e+03,2.59976742e+01,-2.01236780e-08,4.94215205,4.06567058,1.86241201,-3.34509922,4.34180135e-01,6.60149240,-2.19156845,-1,-0.9256591940990604
2.71708535e+03,2.59976727e+01,-2.05968953e-08,4.94341103,4.07285950,1.84866367,-3.34509939,4.52115363e-01,6.61394277,-2.15359172,-1,-0.9235129532543318
2.79274728e+03,2.59976711e+01,-2.11622364e-08,4.94540898,4.08006972,1.83524221,-3.34509946,4.71759339e-01,6.62646866,-2.11547329,-1,-0.9213149133739629
2.87013601e+03,2.59976694e+01,-2.18215902e-08,4.94808230,4.08731200,1.82209430,-3.34509945,4.93275803e-01,6.63906100,-2.07725016,-1,-0.9190667085656647
2.94919350e+03,2.59976676e+01,-2.25715611e-08,4.95132316,4.09459354,1.80915166,-3.34509936,5.16860027e-01,6.65171431,-2.03894784,-1,-0.9167700249380879
3.02990470e+03,2.59976658e+01,-2.34064881e-08,4.95501127,4.10191901,1.79634477,-3.34509925,5.42704199e-01,6.66442462,-2.00058188,-1,-0.9144252997058285
3.11230312e+03,2.59976638e+01,-2.43193065e-08,4.95902351,4.10929127,1.78360637,-3.34509915,5.70955635e-01,6.67719171,-1.96215843,-1,-0.9120315593764529
3.19641582e+03,2.59976617e+01,-2.53002931e-08,4.96323571,4.11671062,1.77087376,-3.34509909,6.01562187e-01,6.69001432,-1.92367915,-1,-0.9095880178352113
3.28229134e+03,2.59976595e+01,-2.63395109e-08,4.96754020,4.12417603,1.75809518,-3.34509905,6.34426197e-01,6.70289197,-1.88514219,-1,-0.9070932649560893
3.37001303e+03,2.59976571e+01,-2.74279212e-08,4.97184623,4.13168587,1.74522854,-3.34509903,6.69484949e-01,6.71582212,-1.84654911,-1,-0.9045448793545937
3.45965615e+03,2.59976546e+01,-2.85561274e-08,4.97607955,4.13923693,1.73224307,-3.34509900,7.06789790e-01,6.72880467,-1.80789224,-1,-0.9019406746672337
3.55129791e+03,2.59976519e+01,-2.97156915e-08,4.98018412,4.14682545,1.71911831,-3.34509898,7.46469297e-01,6.74183594,-1.76917652,-1,-0.8992784078814512
3.64502918e+03,2.59976491e+01,-3.08992968e-08,4.98411865,4.15444739,1.70584169,-3.34509905,7.88705554e-01,6.75491478,-1.73039907,-1,-0.8965554391507086
3.74094522e+03,2.59976460e+01,-3.21005663e-08,4.98785409,4.16209856,1.69240707,-3.34509916,8.33599763e-01,6.76803741,-1.69156394,-1,-0.89376900109544
3.83914221e+03,2.59976428e+01,-3.33141194e-08,4.99137262,4.16977470,1.67881407,-3.34509926,8.81130103e-01,6.78120068,-1.65267341,-1,-0.8909162996093399
3.93972034e+03,2.59976394e+01,-3.45355474e-08,4.99466442,4.17747141,1.66506654,-3.34509934,9.31243552e-01,6.79440190,-1.61372952,-1,-0.8879944240923799
4.04278224e+03,2.59976357e+01,-3.57612934e-08,4.99772720,4.18518452,1.65117171,-3.34509938,9.83928042e-01,6.80763587,-1.57473945,-1,-0.8850003930605704
4.14843197e+03,2.59976319e+01,-3.69886324e-08,5.00056391,4.19290987,1.63713936,-3.34509944,1.03922366,6.82090019,-1.53570394,-1,-0.8819311834872723
4.25677632e+03,2.59976278e+01,-3.82156905e-08,5.00318156,4.20064362,1.62298069,-3.34509946,1.09718063,6.83419028,-1.49662729,-1,-0.8787836930371521
4.36792223e+03,2.59976235e+01,-3.94412951e-08,5.00559044,4.20838217,1.60870802,-3.34509952,1.15787884,6.84750438,-1.45751033,-1,-0.8755548150172562
4.48198069e+03,2.59976189e+01,-4.06648157e-08,5.00780267,4.21612226,1.59433397,-3.34509969,1.22151413,6.86083776,-1.41835892,-1,-0.8722413250788754
