star_age,star_mass,star_mdot,log_L,log_Teff,log_R,log_surf_z,v_wind_Km_per_s,log_center_T,log_center_Rho,phase,x
7.45993099e+01,5.49992534e+01,-1.44043954e-05,5.56444394,3.88128923,2.54232066,-3.34509849,2.25677190e+01,6.23461480,-3.68903761,-1,-1.0
7.71344750e+01,5.49992150e+01,-1.45538080e-05,5.56757403,3.88226964,2.54192489,-3.34509849,2.34406294e+01,6.23680895,-3.68256511,-1,-0.9998567641028964
7.96696401e+01,5.49991766e+01,-1.47032206e-05,5.57070413,3.88325005,2.54152912,-3.34509849,2.43135398e+01,6.23900311,-3.67609261,-1,-0.9997135282057926
8.22048052e+01,5.49991382e+01,-1.48526332e-05,5.57383422,3.88423046,2.54113335,-3.34509849,2.51864502e+01,6.24119726,-3.66962011,-1,-0.999570292308689
8.47399703e+01,5.49990997e+01,-1.50020458e-05,5.57696432,3.88521086,2.54073758,-3.34509849,2.60593606e+01,6.24339141,-3.66314761,-1,-0.9994270564115852
8.72751354e+01,5.49990613e+01,-1.51514584e-05,5.58009441,3.88619127,2.54034181,-3.34509849,2.69322710e+01,6.24558556,-3.65667511,-1,-0.9992838205144816
9.02373327e+01,5.49990144e+01,-1.52867979e-05,5.58303715,3.88741920,2.53935732,-3.34509849,2.80531782e+01,6.24813875,-3.64917119,-1,-0.9991164574549066
9.32001430e+01,5.49989674e+01,-1.54221172e-05,5.58597961,3.88864749,2.53837198,-3.34509849,2.91744414e+01,6.25069245,-3.64166580,-1,-0.9989490597610569
9.61629533e+01,5.49989205e+01,-1.55574365e-05,5.58892208,3.88987578,2.53738664,-3.34509849,3.02957045e+01,6.25324616,-3.63416040,-1,-0.998781662067207
9.91257636e+01,5.49988735e+01,-1.56927558e-05,5.59186454,3.89110406,2.53640129,-3.34509849,3.14169677e+01,6.25579986,-3.62665500,-1,-0.9986142643733572
1.02088574e+02,5.49988266e+01,-1.58280751e-05,5.59480701,3.89233235,2.53541595,-3.34509849,3.25382308e+01,6.25835357,-3.61914960,-1,-0.9984468666738574
1.05426054e+02,5.49987719e+01,-1.59793042e-05,5.59764685,3.89378234,2.53393590,-3.34509849,3.39271900e+01,6.26121133,-3.61076849,-1,-0.9982583002795561
1.08822951e+02,5.49987161e+01,-1.61330564e-05,5.60047042,3.89526749,2.53237738,-3.34509849,3.53586020e+01,6.26411731,-3.60224851,-1,-0.9980663768465757
1.12219848e+02,5.49986602e+01,-1.62868086e-05,5.60329400,3.89675264,2.53081887,-3.34509849,3.67900139e+01,6.26702330,-3.59372853,-1,-0.9978744534135955
1.15616744e+02,5.49986043e+01,-1.64405608e-05,5.60611757,3.89823779,2.52926035,-3.34509849,3.82214259e+01,6.26992928,-3.58520854,-1,-0.9976825300371148
1.19380121e+02,5.49985411e+01,-1.65569313e-05,5.60880569,3.89995606,2.52716787,-3.34509849,3.97722352e+01,6.27312338,-3.57585942,-1,-0.9974699006187253
1.23160363e+02,5.49984775e+01,-1.66715814e-05,5.61148757,3.90168507,2.52505081,-3.34509849,4.13285391e+01,6.27633075,-3.56647215,-1,-0.9972563183340295
1.26940604e+02,5.49984139e+01,-1.67862316e-05,5.61416946,3.90341407,2.52293375,-3.34509849,4.28848431e+01,6.27953811,-3.55708487,-1,-0.9970427361058334
1.30963712e+02,5.49983455e+01,-1.68790788e-05,5.61674668,3.90530180,2.52044688,-3.34509849,4.44951781e+01,6.28292723,-3.54717565,-1,-0.9968154319813308
1.35098346e+02,5.49982750e+01,-1.69619139e-05,5.61927584,3.90726244,2.51779020,-3.34509849,4.61303251e+01,6.28639982,-3.53702673,-1,-0.9965818266787865
1.39232981e+02,5.49982045e+01,-1.70447489e-05,5.62180500,3.90922307,2.51513351,-3.34509849,4.77654720e+01,6.28987241,-3.52687782,-1,-0.9963482213197424
1.43646919e+02,5.49981287e+01,-1.71024413e-05,5.62420328,3.91136771,2.51204338,-3.34509849,4.94304448e+01,6.29354460,-3.51615619,-1,-0.9960988354437732
1.48113440e+02,5.49980519e+01,-1.71554001e-05,5.62657692,3.91354699,2.50887164,-3.34509849,5.11010327e+01,6.29725437,-3.50532673,-1,-0.9958464786476153
1.52681909e+02,5.49979733e+01,-1.71989495e-05,5.62889975,3.91579299,2.50554106,-3.34509849,5.27718909e+01,6.30103374,-3.49429718,-1,-0.995588361826898
1.57461074e+02,5.49978909e+01,-1.72230519e-05,5.63111758,3.91817688,2.50188219,-3.34509849,5.44433078e+01,6.30495695,-3.48285409,-1,-0.9953183407595595
1.62259466e+02,5.49978081e+01,-1.72453890e-05,5.63332540,3.92057313,2.49819360,-3.34509849,5.61132806e+01,6.30889268,-3.47137509,-1,-0.9950472333737821
1.67335331e+02,5.49977206e+01,-1.72422511e-05,5.63538893,3.92314770,2.49407622,-3.34509849,5.77624136e+01,6.31300899,-3.45937779,-1,-0.9947604488654074
1.72412031e+02,5.49976331e+01,-1.72390383e-05,5.63745202,3.92572279,2.48995757,-3.34509849,5.94114241e+01,6.31712582,-3.44737899,-1,-0.9944736171798393
1.77771612e+02,5.49975410e+01,-1.72105013e-05,5.63936388,3.92847469,2.48540972,-3.34509849,6.10189895e+01,6.32141734,-3.43487826,-1,-0.99417080282166
1.83158458e+02,5.49974485e+01,-1.71796159e-05,5.64126098,3.93124316,2.48082132,-3.34509849,6.26197771e+01,6.32572486,-3.42233133,-1,-0.993866448000994
1.88791044e+02,5.49973522e+01,-1.71275644e-05,5.64302495,3.93416108,2.47586747,-3.34509849,6.41594759e+01,6.33017669,-3.40936793,-1,-0.9935482089605766
1.94509772e+02,5.49972547e+01,-1.70684437e-05,5.64474096,3.93712874,2.47079016,-3.34509849,6.56683005e+01,6.33467527,-3.39627134,-1,-0.9932251029287951
2.00407345e+02,5.49971546e+01,-1.69946461e-05,5.64635742,3.94019966,2.46545654,-3.34509849,6.71130251e+01,6.33927090,-3.38289821,-1,-0.9928918922201949
2.06474152e+02,5.49970523e+01,-1.69076522e-05,5.64788236,3.94336451,2.45988930,-3.34509849,6.84803467e+01,6.34395631,-3.36926887,-1,-0.9925491198527464
2.12648578e+02,5.49969485e+01,-1.68123782e-05,5.64934930,3.94658851,2.45417477,-3.34509849,6.97966661e+01,6.34869826,-3.35547822,-1,-0.9922002670513212
2.19057248e+02,5.49968418e+01,-1.67002291e-05,5.65069204,3.94993522,2.44815273,-3.34509848,7.09836808e+01,6.35355770,-3.34135322,-1,-0.9918381795499228
2.25607227e+02,5.49967334e+01,-1.65787175e-05,5.65196175,3.95335140,2.44195523,-3.34509848,7.20843447e+01,6.35848438,-3.32703649,-1,-0.9914681081419205
2.32295380e+02,5.49966235e+01,-1.64482289e-05,5.65316051,3.95683452,2.43558837,-3.34509849,7.31006755e+01,6.36347611,-3.31253518,-1,-0.991090229953663
2.39200251e+02,5.49965111e+01,-1.63046625e-05,5.65425072,3.96041705,2.42896842,-3.34509849,7.39853180e+01,6.36856608,-3.29776058,-1,-0.9907001072779957
2.46303416e+02,5.49963967e+01,-1.61700353e-05,5.65523768,3.96407984,2.42213632,-3.34509850,7.48467709e+01,6.37373555,-3.28276506,-1,-0.9902987810641525
2.53520174e+02,5.49962811e+01,-1.60370978e-05,5.65616784,3.96778692,2.41518723,-3.34509850,7.56802544e+01,6.37894932,-3.26764727,-1,-0.9898910368875266
2.61020393e+02,5.49961627e+01,-1.58931042e-05,5.65696674,3.97159699,2.40796655,-3.34509851,7.63785714e+01,6.38426796,-3.25224345,-1,-0.9894672772685026
2.68611268e+02,5.49960435e+01,-1.57271422e-05,5.65773137,3.97543986,2.40066311,-3.34509851,7.69437286e+01,6.38962265,-3.23674237,-1,-0.9890383956187722
2.76432558e+02,5.49959226e+01,-1.55053446e-05,5.65840889,3.97936612,2.39314935,-3.34509851,7.71704406e+01,6.39506893,-3.22099408,-1,-0.9885964956061623
2.84478413e+02,5.49958000e+01,-1.52904303e-05,5.65899195,3.98336346,2.38544621,-3.34509851,7.73701638e+01,6.40059494,-3.20503549,-1,-0.9881419077535245
2.92707814e+02,5.49956762e+01,-1.50775533e-05,5.65949900,3.98741422,2.37759822,-3.34509851,7.75360206e+01,6.40618255,-3.18891676,-1,-0.9876769496192945
3.01139151e+02,5.49955509e+01,-1.48644139e-05,5.65992411,3.99151947,2.36960027,-3.34509851,7.76574208e+01,6.41183443,-3.17263434,-1,-0.9872005821752261
3.09783970e+02,5.49954243e+01,-1.46507856e-05,5.66026539,3.99567703,2.36145579,-3.34509851,7.77373370e+01,6.41754944,-3.15619729,-1,-0.9867121530765596
3.18706332e+02,5.49952958e+01,-1.44677255e-05,5.66049909,3.99988984,2.35314702,-3.34509852,7.79426415e+01,6.42333166,-3.13960745,-1,-0.9862080429003214
3.27859678e+02,5.49951683e+01,-1.41065282e-05,5.66065190,4.00414329,2.34471653,-3.34509853,7.71371272e+01,6.42916355,-3.12290849,-1,-0.9856908822129128
3.37154334e+02,5.49950428e+01,-1.35563596e-05,5.66075607,4.00842190,2.33621139,-3.34509854,7.52542628e+01,6.43502655,-3.10614041,-1,-0.9851657375624006
3.46772564e+02,5.49949351e+01,-1.16561043e-05,5.66075856,4.01276167,2.32753310,-3.34509853,6.56409484e+01,6.44096895,-3.08918691,-1,-0.9846223110997219
3.56627644e+02,5.49948399e+01,-9.90788941e-06,5.66067969,4.01713729,2.31874243,-3.34509853,5.66044013e+01,6.44695872,-3.07212723,-1,-0.9840655026990269
3.66730961e+02,5.49947576e+01,-8.26871467e-06,5.66051734,4.02154569,2.30984443,-3.34509853,4.79174196e+01,6.45299192,-3.05496950,-1,-0.9834946689989977
3.77113275e+02,5.49946887e+01,-6.81920625e-06,5.66026374,4.02598203,2.30084496,-3.34509854,4.00690149e+01,6.45906142,-3.03772856,-1,-0.9829080720709309
3.87738327e+02,5.49946309e+01,-5.54683239e-06,5.65993408,4.03043696,2.29177027,-3.34509854,3.30554492e+01,6.46515451,-3.02042881,-1,-0.9823077605350103
3.98703892e+02,5.49945887e+01,-4.29398998e-06,5.65950632,4.03491419,2.28260192,-3.34509856,2.59138163e+01,6.47127616,-3.00304059,-1,-0.981688210139644
4.09929139e+02,5.49945609e+01,-2.75242917e-06,5.65900179,4.03941187,2.27335431,-3.34509856,1.68107972e+01,6.47742386,-2.98555237,-1,-0.9810539878066467
4.21443186e+02,5.49945479e+01,-1.21246895e-06,5.65841307,4.04392853,2.26402662,-3.34509856,7.49911929,6.48359659,-2.96794972,-1,-0.9804034483797119
4.33270000e+02,5.49945447e+01,-2.68671470e-07,5.65773573,4.04846012,2.25462478,-3.34509857,1.69307718,6.48979058,-2.95021718,-1,-0.9797352377321418
4.45429227e+02,5.49945414e+01,-2.70787351e-07,5.65697057,4.05300091,2.24516061,-3.34509858,1.73171045,6.49600029,-2.93234169,-1,-0.9790482458721511
4.57900636e+02,5.49945380e+01,-2.72512698e-07,5.65613297,4.05754295,2.23565773,-3.34509859,1.76937247,6.50221611,-2.91433583,-1,-0.9783436158438101
4.70818649e+02,5.49945345e+01,-2.74157182e-07,5.65520705,4.06208479,2.22611109,-3.34509860,1.80831861,6.50844697,-2.89610526,-1,-0.9776137528534857
4.83993797e+02,5.49945308e+01,-2.76047752e-07,5.65423230,4.06663385,2.21652561,-3.34509860,1.84987121,6.51470305,-2.87770585,-1,-0.9768693618300949
4.97524854e+02,5.49945271e+01,-2.78095982e-07,5.65319443,4.07119210,2.20689016,-3.34509860,1.89369155,6.52099747,-2.85906676,-1,-0.9761048620789126
5.11430996e+02,5.49945232e+01,-2.79901347e-07,5.65210095,4.07575607,2.19721548,-3.34509861,1.93689643,6.52733592,-2.84017328,-1,-0.9753191701629813
5.25727516e+02,5.49945192e+01,-2.81531857e-07,5.65096324,4.08032288,2.18751301,-3.34509862,1.97969130,6.53372610,-2.82101644,-1,-0.9745114220334173
5.40421745e+02,5.49945150e+01,-2.82862957e-07,5.64979665,4.08488600,2.17780348,-3.34509863,2.02114609,6.54016981,-2.80161640,-1,-0.9736812034914131
5.55603980e+02,5.49945107e+01,-2.84168239e-07,5.64860932,4.08944491,2.16809199,-3.34509864,2.06345777,6.54669026,-2.78192498,-1,-0.9728234127896305
5.71095763e+02,5.49945062e+01,-2.85685522e-07,5.64740765,4.09400863,2.15836371,-3.34509865,2.10822928,6.55327159,-2.76202863,-1,-0.9719481327395301
5.87008516e+02,5.49945017e+01,-2.87403654e-07,5.64619108,4.09857999,2.14861272,-3.34509865,2.15582524,6.55993939,-2.74185213,-1,-0.9710490680390321
6.03362173e+02,5.49944969e+01,-2.88982111e-07,5.64497268,4.10315601,2.13885146,-3.34509865,2.20390964,6.56669687,-2.72139596,-1,-0.9701250924244574
6.20173251e+02,5.49944921e+01,-2.90482295e-07,5.64376564,4.10773415,2.12909166,-3.34509866,2.25292230,6.57354433,-2.70066498,-1,-0.9691752726913717
6.37460625e+02,5.49944870e+01,-2.91764096e-07,5.64258868,4.11230743,2.11935663,-3.34509867,2.30155480,6.58047615,-2.67967915,-1,-0.9681985424092071
6.55307568e+02,5.49944818e+01,-2.93096690e-07,5.64146176,4.11687692,2.10965419,-3.34509868,2.35186060,6.58750731,-2.65839369,-1,-0.9671901966840457
6.73521076e+02,5.49944764e+01,-2.94716636e-07,5.64036162,4.12145114,2.09995569,-3.34509869,2.40540882,6.59461006,-2.63689453,-1,-0.9661611401710064
6.92228290e+02,5.49944709e+01,-2.96647102e-07,5.63930087,4.12603324,2.09026111,-3.34509869,2.46268634,6.60180980,-2.61510701,-1,-0.9651041894502819
7.11451786e+02,5.49944651e+01,-2.98527231e-07,5.63829559,4.13062041,2.08058413,-3.34509869,2.52070373,6.60910513,-2.59303673,-1,-0.9640180689861634
7.31212227e+02,5.49944592e+01,-3.00409193e-07,5.63735919,4.13520936,2.07093802,-3.34509871,2.57986867,6.61649144,-2.57069842,-1,-0.9629016113267393
7.51521651e+02,5.49944530e+01,-3.02086467e-07,5.63652159,4.13979707,2.06134380,-3.34509876,2.63828525,6.62396861,-2.54809318,-1,-0.9617541363294309
7.72488877e+02,5.49944467e+01,-3.03922040e-07,5.63580490,4.14438172,2.05181617,-3.34509880,2.69929787,6.63154059,-2.52520817,-1,-0.9605694957607019
7.93884071e+02,5.49944401e+01,-3.06230522e-07,5.63516081,4.14897358,2.04231039,-3.34509883,2.76563419,6.63918475,-2.50210971,-1,-0.9593606751571454
8.15848685e+02,5.49944333e+01,-3.09047449e-07,5.63461895,4.15357803,2.03283057,-3.34509883,2.83810361,6.64692810,-2.47871877,-1,-0.95811968253271
8.38404947e+02,5.49944263e+01,-3.11894668e-07,5.63420045,4.15819439,2.02338859,-3.34509886,2.91252751,6.65477083,-2.45503783,-1,-0.9568452620135589
8.61579052e+02,5.49944190e+01,-3.14822216e-07,5.63391806,4.16281879,2.01399861,-3.34509891,2.98930030,6.66270389,-2.43109716,-1,-0.9555359335918123
8.85364830e+02,5.49944114e+01,-3.17490070e-07,5.63379683,4.16744832,2.00467892,-3.34509903,3.06490925,6.67071974,-2.40691798,-1,-0.9541920458702043
9.09910839e+02,5.49944035e+01,-3.20457604e-07,5.63388256,4.17208813,1.99544217,-3.34509917,3.14491655,6.67883591,-2.38245133,-1,-0.9528052053762932
9.34936742e+02,5.49943954e+01,-3.24271038e-07,5.63408715,4.17674461,1.98623152,-3.34509926,3.23458022,6.68702731,-2.35776847,-1,-0.9513912510476246
9.60600899e+02,5.49943869e+01,-3.28921712e-07,5.63444946,4.18142387,1.97705415,-3.34509931,3.33437441,6.69531538,-2.33280823,-1,-0.9499412356023564
9.86930708e+02,5.49943782e+01,-3.33665312e-07,5.63498424,4.18612413,1.96792100,-3.34509943,3.43708712,6.70369306,-2.30759297,-1,-0.9484536110635507
1.01394565e+03,5.49943690e+01,-3.38487334e-07,5.63571094,4.19084746,1.95883770,-3.34509962,3.54250072,6.71216076,-2.28212452,-1,-0.9469272767618621
1.04158585e+03,5.49943595e+01,-3.42893817e-07,5.63662559,4.19558915,1.94981165,-3.34510000,3.64510440,6.72070040,-2.25645601,-1,-0.9453656156128011
1.07010427e+03,5.49943496e+01,-3.47792579e-07,5.63778929,4.20036156,1.94084867,-3.34510025,3.75515655,6.72933728,-2.23052025,-1,-0.9437543353562688
1.09914856e+03,5.49943392e+01,-3.54200691e-07,5.63907515,4.20516144,1.93189185,-3.34510023,3.88362845,6.73804338,-2.20439064,-1,-0.9421133436378638
1.12888182e+03,5.49943285e+01,-3.61710095e-07,5.64052048,4.20999765,1.92294209,-3.34510006,4.02691225,6.74683710,-2.17801707,-1,-0.9404334253674849
1.15932689e+03,5.49943172e+01,-3.69273741e-07,5.64212958,4.21487139,1.91399917,-3.34509999,4.17394566,6.75571500,-2.15141197,-1,-0.93871329009352
1.19051645e+03,5.49943055e+01,-3.76678549e-07,5.64390274,4.21978373,1.90506107,-3.34509964,4.32232336,6.76467214,-2.12459244,-1,-0.9369510914079713
1.22237432e+03,5.49942932e+01,-3.83491662e-07,5.64581309,4.22472910,1.89612550,-3.34509891,4.46668236,6.77369018,-2.09761190,-1,-0.935151133452861
1.25505530e+03,5.49942804e+01,-3.90822932e-07,5.64785929,4.22971726,1.88717227,-3.34510023,4.62062797,6.78277934,-2.07044620,-1,-0.9333046700850404
1.28842878e+03,5.49942670e+01,-4.00886243e-07,5.64998168,4.23474966,1.87816867,-3.34510001,4.81128631,6.79194293,-2.04307751,-1,-0.9314190807215421
1.32252628e+03,5.49942530e+01,-4.11583145e-07,5.65217609,4.23982727,1.86911066,-3.34509918,5.01454187,6.80117796,-2.01551514,-1,-0.9294925844939422
1.35737523e+03,5.49942382e+01,-4.22145076e-07,5.65443275,4.24495226,1.85998900,-3.34509882,5.22200974,6.81048375,-1.98776514,-1,-0.9275236316173144
1.39298795e+03,5.49942228e+01,-4.32841622e-07,5.65673113,4.25012413,1.85079445,-3.34509885,5.43751225,6.81985494,-1.95984118,-1,-0.9255115260161833
1.42944038e+03,5.49942067e+01,-4.42611853e-07,5.65904219,4.25534067,1.84151690,-3.34509899,5.64854776,6.82927817,-1.93178595,-1,-0.9234519771084378
1.46671317e+03,5.49941898e+01,-4.52054530e-07,5.66133301,4.26059855,1.83214655,-3.34509913,5.86295840,6.83874511,-1.90362211,-1,-0.9213460781619719
1.50467394e+03,5.49941722e+01,-4.62682431e-07,5.66359346,4.26589290,1.82268808,-3.34509915,6.09985009,6.84825390,-1.87534971,-1,-0.9192013085981685
1.54350763e+03,5.49941537e+01,-4.76370575e-07,5.66580448,4.27123685,1.81310570,-3.34509897,6.38732140,6.85782624,-1.84690736,-1,-0.9170072193749473
1.58320981e+03,5.49941343e+01,-4.89226652e-07,5.66795548,4.27662637,1.80340215,-3.34509896,6.67534376,6.86745162,-1.81832258,-1,-0.9147640607856815
1.62378280e+03,5.49941139e+01,-5.01769782e-07,5.67003133,4.28205817,1.79357648,-3.34509889,6.97113208,6.87712252,-1.78961305,-1,-0.912471701751223
1.66527251e+03,5.49940926e+01,-5.13515363e-07,5.67200951,4.28752919,1.78362353,-3.34509892,7.26864119,6.88683207,-1.76079941,-1,-0.9101275483734325
1.70766488e+03,5.49940704e+01,-5.23971246e-07,5.67387404,4.29303189,1.77355038,-3.34509917,7.56048495,6.89656884,-1.73191653,-1,-0.9077323950371463
1.75089507e+03,5.49940472e+01,-5.34758067e-07,5.67562807,4.29856177,1.76336765,-3.34509968,7.86880974,6.90633010,-1.70297124,-1,-0.9052899051785518
1.79515574e+03,5.49940229e+01,-5.49415073e-07,5.67726367,4.30413093,1.75304714,-3.34509924,8.25056760,6.91613958,-1.67388840,-1,-0.9027891935784039
1.84043016e+03,5.49939975e+01,-5.62791056e-07,5.67878376,4.30973294,1.74260315,-3.34509906,8.63089466,6.92598663,-1.64469880,-1,-0.9002312054755585
1.88672295e+03,5.49939708e+01,-5.75565676e-07,5.68018500,4.31536306,1.73204352,-3.34509912,9.01998384,6.93586532,-1.61542202,-1,-0.8976156798417121
1.93409117e+03,5.49939430e+01,-5.87369574e-07,5.68145786,4.32101625,1.72137357,-3.34509923,9.41271345,6.94576960,-1.58607080,-1,-0.8949393928078205
1.98254526e+03,5.49939140e+01,-5.97726218e-07,5.68260065,4.32668468,1.71060812,-3.34509943,9.80100177,6.95568976,-1.55667567,-1,-0.8922017545177175
2.03202249e+03,5.49938839e+01,-6.08591148e-07,5.68363054,4.33236639,1.69975964,-3.34509964,1.02157440e+01,6.96562706,-1.52723102,-1,-0.8894063091933655
2.08270712e+03,5.49938523e+01,-6.22550471e-07,5.68455281,4.33807081,1.68881195,-3.34509973,1.07067551e+01,6.97560193,-1.49767309,-1,-0.8865426462124345
2.13458868e+03,5.49938194e+01,-6.35263814e-07,5.68537472,4.34379209,1.67778033,-3.34509986,1.12024094e+01,6.98560550,-1.46803153,-1,-0.8836113571260793
2.18773372e+03,5.49937850e+01,-6.46663434e-07,5.68609309,4.34952406,1.66667557,-3.34510007,1.17016858e+01,6.99562958,-1.43833469,-1,-0.8806086818837405
2.24215031e+03,5.49937615e+01,-4.66453647e-07,5.68671526,4.35525941,1.65551597,-3.34510038,8.58921184,7.00566415,-1.40860148,-1,-0.8775341645333821
2.29776278e+03,5.49937603e+01,-2.17878262e-08,5.68726129,4.36099910,1.64430960,-3.34510053,4.16074617e-01,7.01571292,-1.37881907,-1,-0.8743920804022137
2.35476628e+03,5.49937589e+01,-2.40815049e-08,5.68773207,4.36675099,1.63304120,-3.34509971,4.72811165e-01,7.02579411,-1.34893819,-1,-0.871171403586905
2.41315108e+03,5.49937574e+01,-2.63430169e-08,5.68813547,4.37251025,1.62172438,-3.34509983,5.32134892e-01,7.03589920,-1.31898256,-1,-0.8678726838288824
2.47300804e+03,5.49937557e+01,-2.84821538e-08,5.68847178,4.37827071,1.61037163,-3.34510074,5.92288346e-01,7.04602021,-1.28897708,-1,-0.8644907875715147
2.53435917e+03,5.49937538e+01,-3.05146500e-08,5.68874984,4.38402673,1.59899862,-3.34510060,6.53567393e-01,7.05614925,-1.25894088,-1,-0.861024471257885
2.59708920e+03,5.49937518e+01,-3.29017542e-08,5.68898520,4.38978218,1.58760539,-3.34509992,7.25879729e-01,7.06629239,-1.22885779,-1,-0.85748024760066
2.66139692e+03,5.49937494e+01,-3.59084010e-08,5.68918135,4.39554375,1.57618033,-3.34509965,8.16474001e-01,7.07646336,-1.19868874,-1,-0.853846885037846
2.72728320e+03,5.49937469e+01,-3.88504423e-08,5.68934000,4.40130713,1.56473290,-3.34509969,9.10900899e-01,7.08665477,-1.16845375,-1,-0.8501243344147625
2.79487746e+03,5.49937441e+01,-4.15493042e-08,5.68946308,4.40706594,1.55327680,-3.34509976,1.00507695,7.09685784,-1.13817589,-1,-0.8463052835489393
2.86421617e+03,5.49937410e+01,-4.41655088e-08,5.68955897,4.41281654,1.54182355,-3.34509984,1.10283628,7.10706672,-1.10787332,-1,-0.8423876718987702
