star_age,star_mass,star_mdot,log_L,log_Teff,log_R,log_surf_z,v_wind_Km_per_s,log_center_T,log_center_Rho,phase,x
1.40054592e+02,8.49997631e+01,-1.47494824e-06,6.01992943,4.22287976,2.08688236,-3.34509853,9.70654315,6.75454764,-2.29703766,-1,-1.0
1.43636800e+02,8.49997578e+01,-1.47361626e-06,6.01937854,4.22391885,2.08452871,-3.34509853,9.74677812,6.75606962,-2.29260213,-1,-0.9996880530083416
1.47219007e+02,8.49997525e+01,-1.47228428e-06,6.01882765,4.22495795,2.08217507,-3.34509853,9.78701309,6.75759160,-2.28816659,-1,-0.9993761061037655
1.50801215e+02,8.49997473e+01,-1.47095230e-06,6.01827676,4.22599705,2.07982143,-3.34509853,9.82724806,6.75911359,-2.28373105,-1,-0.9990641591121071
1.54383422e+02,8.49997420e+01,-1.46962031e-06,6.01772587,4.22703615,2.07746778,-3.34509854,9.86748303,6.76063557,-2.27929552,-1,-0.9987522122075311
1.57992852e+02,8.49997367e+01,-1.46834894e-06,6.01717878,4.22807986,2.07510683,-3.34509854,9.90829507,6.76216734,-2.27483141,-1,-0.9984378946608946
1.61989736e+02,8.49997309e+01,-1.46794023e-06,6.01668588,4.22918910,2.07264190,-3.34509854,9.95732043,6.76383852,-2.26996071,-1,-0.9980898367201475
1.65986621e+02,8.49997250e+01,-1.46753152e-06,6.01619298,4.23029834,2.07017696,-3.34509854,1.00063458e+01,6.76550971,-2.26509000,-1,-0.9977417786923182
1.69983505e+02,8.49997191e+01,-1.46712281e-06,6.01570008,4.23140758,2.06771202,-3.34509854,1.00553712e+01,6.76718089,-2.26021930,-1,-0.9973937207515712
1.73980390e+02,8.49997133e+01,-1.46671410e-06,6.01520718,4.23251683,2.06524709,-3.34509854,1.01043965e+01,6.76885207,-2.25534860,-1,-0.9970456627237417
1.78315995e+02,8.49997069e+01,-1.46684671e-06,6.01477022,4.23367989,2.06270249,-3.34509854,1.01592432e+01,6.77063839,-2.25014263,-1,-0.9966681081716976
1.82759832e+02,8.49997004e+01,-1.46715228e-06,6.01435113,4.23486014,2.06013243,-3.34509854,1.02159500e+01,6.77246149,-2.24482953,-1,-0.9962811285257446
1.87203670e+02,8.49996939e+01,-1.46745786e-06,6.01393204,4.23604040,2.05756237,-3.34509854,1.02726568e+01,6.77428459,-2.23951643,-1,-0.9958941487927091
1.91647508e+02,8.49996873e+01,-1.46776344e-06,6.01351295,4.23722066,2.05499232,-3.34509854,1.03293636e+01,6.77610769,-2.23420334,-1,-0.9955071690596737
1.96149228e+02,8.49996807e+01,-1.46815129e-06,6.01310293,4.23840975,2.05240912,-3.34509855,1.03870478e+01,6.77794969,-2.22883505,-1,-0.9951151488276581
2.01127020e+02,8.49996734e+01,-1.46921572e-06,6.01276750,4.23967152,2.04971786,-3.34509855,1.04527711e+01,6.77994719,-2.22301289,-1,-0.9946816711402928
2.06104813e+02,8.49996661e+01,-1.47028015e-06,6.01243207,4.24093329,2.04702660,-3.34509855,1.05184944e+01,6.78194468,-2.21719072,-1,-0.9942481933658452
2.11082605e+02,8.49996587e+01,-1.47134458e-06,6.01209664,4.24219507,2.04433534,-3.34509855,1.05842177e+01,6.78394218,-2.21136855,-1,-0.99381471567848
2.16060397e+02,8.49996514e+01,-1.47240901e-06,6.01176120,4.24345684,2.04164408,-3.34509855,1.06499410e+01,6.78593968,-2.20554639,-1,-0.9933812379911148
2.21108039e+02,8.49996439e+01,-1.47367055e-06,6.01143435,4.24472948,2.03893537,-3.34509855,1.07177052e+01,6.78795989,-2.19965790,-1,-0.9929416776035358
2.26633425e+02,8.49996357e+01,-1.47628021e-06,6.01116615,4.24607645,2.03610732,-3.34509855,1.07994280e+01,6.79013549,-2.19331581,-1,-0.9924605141589644
2.32158812e+02,8.49996275e+01,-1.47888987e-06,6.01089795,4.24742343,2.03327927,-3.34509855,1.08811509e+01,6.79231109,-2.18697373,-1,-0.9919793506273106
2.37684199e+02,8.49996193e+01,-1.48149953e-06,6.01062976,4.24877041,2.03045122,-3.34509855,1.09628737e+01,6.79448670,-2.18063164,-1,-0.9914981870956568
2.43295203e+02,8.49996110e+01,-1.48422896e-06,6.01037333,4.25013020,2.02760343,-3.34509855,1.10462844e+01,6.79668907,-2.17421143,-1,-0.9910095678368134
2.49319718e+02,8.49996020e+01,-1.48753686e-06,6.01017376,4.25155187,2.02466028,-3.34509855,1.11378468e+01,6.79902073,-2.16741391,-1,-0.9904849390797867
2.55344232e+02,8.49995930e+01,-1.49084477e-06,6.00997419,4.25297355,2.02171714,-3.34509855,1.12294092e+01,6.80135240,-2.16061640,-1,-0.9899603104098423
2.61368747e+02,8.49995840e+01,-1.49415267e-06,6.00977462,4.25439523,2.01877399,-3.34509855,1.13209716e+01,6.80368406,-2.15381888,-1,-0.9894356816528157
2.67761956e+02,8.49995744e+01,-1.49751604e-06,6.00963277,4.25586850,2.01575654,-3.34509855,1.14162673e+01,6.80612353,-2.14670677,-1,-0.9888789461660452
2.74320013e+02,8.49995645e+01,-1.50090422e-06,6.00951673,4.25736483,2.01270586,-3.34509855,1.15132321e+01,6.80861121,-2.13945399,-1,-0.9883078553326055
2.80878071e+02,8.49995546e+01,-1.50429240e-06,6.00940068,4.25886116,2.00965518,-3.34509855,1.16101969e+01,6.81109888,-2.13220121,-1,-0.9877367644120835
2.87436129e+02,8.49995447e+01,-1.50768058e-06,6.00928464,4.26035749,2.00660449,-3.34509855,1.17071617e+01,6.81358655,-2.12494843,-1,-0.9871656734915615
2.94537575e+02,8.49995339e+01,-1.51184282e-06,6.00924910,4.26192810,2.00344550,-3.34509855,1.18153473e+01,6.81622768,-2.11724827,-1,-0.986547263082081
3.01731756e+02,8.49995229e+01,-1.51613716e-06,6.00922729,4.26351139,2.00026803,-3.34509855,1.19254478e+01,6.81889499,-2.10947175,-1,-0.9859207770934404
3.08925937e+02,8.49995119e+01,-1.52043151e-06,6.00920548,4.26509467,1.99709055,-3.34509855,1.20355483e+01,6.82156231,-2.10169523,-1,-0.9852942911047999
3.16120118e+02,8.49995009e+01,-1.52472585e-06,6.00918367,4.26667796,1.99391307,-3.34509855,1.21456488e+01,6.82422962,-2.09391872,-1,-0.9846678051161594
3.23736345e+02,8.49994892e+01,-1.53105317e-06,6.00921194,4.26832160,1.99063992,-3.34509855,1.22770239e+01,6.82701736,-2.08579131,-1,-0.9840045663817147
3.31572760e+02,8.49994770e+01,-1.53844111e-06,6.00926632,4.26999672,1.98731686,-3.34509855,1.24194980e+01,6.82986793,-2.07748084,-1,-0.983322153164884
3.39409174e+02,8.49994649e+01,-1.54582905e-06,6.00932070,4.27167185,1.98399380,-3.34509855,1.25619722e+01,6.83271850,-2.06917037,-1,-0.9826397400351357
3.47442812e+02,8.49994524e+01,-1.55337027e-06,6.00939967,4.27337379,1.98062941,-3.34509855,1.27082765e+01,6.83562203,-2.06070544,-1,-0.9819401521814508
3.55851215e+02,8.49994391e+01,-1.56120277e-06,6.00952537,4.27512668,1.97718648,-3.34509855,1.28618586e+01,6.83862619,-2.05194699,-1,-0.9812079289212433
3.64259618e+02,8.49994259e+01,-1.56903526e-06,6.00965107,4.27687957,1.97374356,-3.34509855,1.30154407e+01,6.84163034,-2.04318855,-1,-0.9804757056610358
3.72905879e+02,8.49994122e+01,-1.57716071e-06,6.00980651,4.27866456,1.97025128,-3.34509854,1.31747513e+01,6.84469690,-2.03424806,-1,-0.9797227691738069
3.81860373e+02,8.49993979e+01,-1.58566579e-06,6.01000047,4.28049117,1.96669504,-3.34509854,1.33414852e+01,6.84784432,-2.02507166,-1,-0.9789429910411236
3.90814866e+02,8.49993836e+01,-1.59417086e-06,6.01019443,4.28231778,1.96313880,-3.34509854,1.35082191e+01,6.85099174,-2.01589525,-1,-0.9781632129955227
4.00211783e+02,8.49993684e+01,-1.60217895e-06,6.01044263,4.28419965,1.95949917,-3.34509854,1.36768991e+01,6.85424448,-2.00641288,-1,-0.9773449076405534
4.09758186e+02,8.49993530e+01,-1.61001911e-06,6.01070915,4.28610018,1.95583136,-3.34509854,1.38462368e+01,6.85753280,-1.99682713,-1,-0.9765135846975505
4.19304589e+02,8.49993375e+01,-1.61785927e-06,6.01097567,4.28800072,1.95216355,-3.34509855,1.40155744e+01,6.86082113,-1.98724137,-1,-0.9756822617545475
4.29358862e+02,8.49993210e+01,-1.62641688e-06,6.01129540,4.28996484,1.94839517,-3.34509855,1.41989298e+01,6.86422759,-1.97731207,-1,-0.97480671231251
4.39608960e+02,8.49993041e+01,-1.63525114e-06,6.01163564,4.29195349,1.94458800,-3.34509855,1.43876902e+01,6.86767962,-1.96725030,-1,-0.9739141099747051
4.49859058e+02,8.49992872e+01,-1.64408540e-06,6.01197587,4.29394213,1.94078083,-3.34509855,1.45764506e+01,6.87113164,-1.95718854,-1,-0.9730215076369001
4.60349278e+02,8.49992697e+01,-1.65460988e-06,6.01233494,4.29596240,1.93691983,-3.34509855,1.47848633e+01,6.87464088,-1.94696062,-1,-0.972107994917696
4.71305390e+02,8.49992513e+01,-1.66841383e-06,6.01273051,4.29804402,1.93295438,-3.34509855,1.50314066e+01,6.87826113,-1.93641034,-1,-0.9711539112411834
4.82261502e+02,8.49992328e+01,-1.68221778e-06,6.01312609,4.30012564,1.92898893,-3.34509855,1.52779498e+01,6.88188139,-1.92586006,-1,-0.9701998275646709
4.93610956e+02,8.49992134e+01,-1.69597800e-06,6.01355067,4.30225710,1.92493829,-3.34509855,1.55326861e+01,6.88558984,-1.91505255,-1,-0.9692114907533341
5.05191826e+02,8.49991935e+01,-1.70971249e-06,6.01399230,4.30441788,1.92083754,-3.34509855,1.57922426e+01,6.88935018,-1.90409370,-1,-0.9682030016992962
5.16907856e+02,8.49991732e+01,-1.72353928e-06,6.01444237,4.30659534,1.91670765,-3.34509854,1.60557801e+01,6.89313926,-1.89305117,-1,-0.9671827425985742
5.29081024e+02,8.49991519e+01,-1.73767822e-06,6.01492098,4.30882921,1.91247922,-3.34509854,1.63327822e+01,6.89702555,-1.88172558,-1,-0.9661226748591932
5.41254193e+02,8.49991306e+01,-1.75181716e-06,6.01539959,4.31106307,1.90825080,-3.34509854,1.66097844e+01,6.90091183,-1.87039999,-1,-0.96506260703273
5.54065015e+02,8.49991077e+01,-1.76413440e-06,6.01590721,4.31336933,1.90389210,-3.34509855,1.68845112e+01,6.90491863,-1.85872599,-1,-0.963947010902195
5.66878558e+02,8.49990849e+01,-1.77644386e-06,6.01641496,4.31567590,1.89953284,-3.34509855,1.71592282e+01,6.90892594,-1.84705050,-1,-0.9628311778206611
5.80034965e+02,8.49990612e+01,-1.78913303e-06,6.01693035,4.31802093,1.89510046,-3.34509855,1.74462968e+01,6.91299585,-1.83519254,-1,-0.9616854873457688
5.93609245e+02,8.49990365e+01,-1.80228501e-06,6.01745506,4.32041285,1.89057898,-3.34509856,1.77484191e+01,6.91714203,-1.82311219,-1,-0.9605034075196032
6.07183526e+02,8.49990117e+01,-1.81543698e-06,6.01797977,4.32280477,1.88605749,-3.34509856,1.80505414e+01,6.92128822,-1.81103184,-1,-0.9593213276063554
6.21187156e+02,8.49989859e+01,-1.83229524e-06,6.01850849,4.32524749,1.88143641,-3.34509856,1.84026832e+01,6.92551706,-1.79871123,-1,-0.9581018589851036
6.35517605e+02,8.49989591e+01,-1.85197469e-06,6.01904026,4.32772888,1.87673951,-3.34509856,1.87928996e+01,6.92980882,-1.78620775,-1,-0.9568539302063548
6.50016998e+02,8.49989319e+01,-1.87141139e-06,6.01957207,4.33022921,1.87200476,-3.34509856,1.91864747e+01,6.93413069,-1.77361661,-1,-0.9555912893917446
6.65010632e+02,8.49989033e+01,-1.89013789e-06,6.02010401,4.33278495,1.86715926,-3.34509855,1.95898753e+01,6.93854063,-1.76076906,-1,-0.9542856089230709
6.80129530e+02,8.49988744e+01,-1.90883000e-06,6.02063437,4.33535408,1.86228617,-3.34509855,1.99975120e+01,6.94297161,-1.74786021,-1,-0.9529690201743745
6.95748559e+02,8.49988441e+01,-1.92738477e-06,6.02115848,4.33797673,1.85730293,-3.34509856,2.04220613e+01,6.94748663,-1.73470658,-1,-0.951608878856736
7.11540532e+02,8.49988133e+01,-1.94597853e-06,6.02167822,4.34061712,1.85228202,-3.34509856,2.08538384e+01,6.95202913,-1.72147294,-1,-0.9502336771739469
7.27770031e+02,8.49987812e+01,-1.96467093e-06,6.02218692,4.34330239,1.84716583,-3.34509856,2.13039008e+01,6.95664117,-1.70803689,-1,-0.9488203747110042
7.44300560e+02,8.49987483e+01,-1.98210898e-06,6.02268254,4.34601538,1.84198765,-3.34509856,2.17524938e+01,6.96129491,-1.69447916,-1,-0.9473808578565748
7.61198463e+02,8.49987144e+01,-1.99801622e-06,6.02316220,4.34876220,1.83673385,-3.34509857,2.21992935e+01,6.96599953,-1.68077295,-1,-0.945909349221067
7.78365887e+02,8.49986797e+01,-2.01405597e-06,6.02362682,4.35153234,1.83142587,-3.34509858,2.26590830e+01,6.97073930,-1.66696424,-1,-0.9444143700709662
7.96061506e+02,8.49986434e+01,-2.03035542e-06,6.02406196,4.35434819,1.82601175,-3.34509859,2.31443296e+01,6.97554792,-1.65295466,-1,-0.9428733944736298
8.13757126e+02,8.49986072e+01,-2.04665486e-06,6.02449710,4.35716404,1.82059763,-3.34509859,2.36295762e+01,6.98035654,-1.63894507,-1,-0.9413324187892111
8.32179570e+02,8.49986030e+01,-1.12927838e-06,6.02490089,4.36004715,1.81503330,-3.34509863,1.30619929e+01,6.98526992,-1.62462928,-1,-0.9397281495829575
8.50667684e+02,8.49986017e+01,-1.27542599e-07,6.02530184,4.36293634,1.80945540,-3.34509866,1.49576669,6.99019277,-1.61028583,-1,-0.9381181616805975
8.69818676e+02,8.49986002e+01,-7.40209003e-08,6.02566434,4.36588091,1.80374750,-3.34509869,8.91337927e-01,6.99520198,-1.59569085,-1,-0.9364504488225853
8.89123100e+02,8.49985987e+01,-7.76019075e-08,6.02601787,4.36883787,1.79801036,-3.34509872,9.47571257e-01,7.00023063,-1.58103898,-1,-0.9347693747496956
9.08979278e+02,8.49985971e+01,-8.12722586e-08,6.02633903,4.37183875,1.79216917,-3.34509875,1.00740436,7.00532847,-1.56618414,-1,-0.9330402526571389
9.29165180e+02,8.49985953e+01,-8.50289285e-08,6.02663872,4.37486286,1.78627080,-3.34509877,1.06991671,7.01046226,-1.55122342,-1,-0.9312824174329388
9.49678184e+02,8.49985935e+01,-8.88712315e-08,6.02691711,4.37791000,1.78031570,-3.34509879,1.13508703,7.01563172,-1.53615767,-1,-0.9294960974069446
9.70838508e+02,8.49985915e+01,-9.23163281e-08,6.02714894,4.38099638,1.77425887,-3.34509880,1.19834352,7.02086305,-1.52090922,-1,-0.9276534072520689
9.92102314e+02,8.49985895e+01,-9.57219810e-08,6.02737341,4.38408887,1.76818611,-3.34509880,1.26160900,7.02610412,-1.50563201,-1,-0.9258017056443153
1.01420674e+03,8.49985872e+01,-9.93564500e-08,6.02753989,4.38722751,1.76199208,-3.34509881,1.33213843,7.03142088,-1.49013165,-1,-0.9238768008947766
1.03631117e+03,8.49985849e+01,-1.02990919e-07,6.02770636,4.39036614,1.75579805,-3.34509881,1.40266786,7.03673764,-1.47463130,-1,-0.9219518957969086
1.05917713e+03,8.49985823e+01,-1.08224734e-07,6.02783225,4.39355158,1.74949012,-3.34509881,1.49993563,7.04213457,-1.45889471,-1,-0.9199606748981274
1.08223152e+03,8.49985797e+01,-1.13653540e-07,6.02794813,4.39674794,1.74315533,-3.34509882,1.60118544,7.04755029,-1.44310250,-1,-0.9179530450773522
1.10596958e+03,8.49985768e+01,-1.18953415e-07,6.02802789,4.39998124,1.73672862,-3.34509882,1.70590913,7.05302976,-1.42712018,-1,-0.9158858796852793
1.13008540e+03,8.49985738e+01,-1.24277365e-07,6.02808771,4.40323281,1.73025539,-3.34509883,1.81400526,7.05854187,-1.41104071,-1,-0.9137858180751285
1.15456207e+03,8.49985706e+01,-1.29624313e-07,6.02812850,4.40650183,1.72373773,-3.34509884,1.92532287,7.06408516,-1.39486842,-1,-0.9116543328089699
1.17984681e+03,8.49985671e+01,-1.34208563e-07,6.02812570,4.40980068,1.71713864,-3.34509886,2.03155848,7.06968468,-1.37852813,-1,-0.9094524789306176
1.20536109e+03,8.49985635e+01,-1.38841554e-07,6.02811242,4.41310711,1.71051915,-3.34509887,2.14033084,7.07529931,-1.36214240,-1,-0.9072306361760009
1.23162996e+03,8.49985597e+01,-1.43658627e-07,6.02806491,4.41643838,1.70383286,-3.34509889,2.25780056,7.08096349,-1.34560752,-1,-0.9049430819717879
1.25808217e+03,8.49985557e+01,-1.48913669e-07,6.02801154,4.41977740,1.69712812,-3.34509890,2.38406159,7.08664312,-1.32902646,-1,-0.9026395620946015
1.28531403e+03,8.49985514e+01,-1.56031107e-07,6.02793323,4.42314940,1.69034497,-3.34509889,2.54770629,7.09238846,-1.31224902,-1,-0.9002681484848216
1.31299211e+03,8.49985468e+01,-1.62979475e-07,6.02784052,4.42653653,1.68352436,-3.34509889,2.71368774,7.09816477,-1.29537861,-1,-0.8978578770011778
1.34109034e+03,8.49985420e+01,-1.69768655e-07,6.02773424,4.42993789,1.67666849,-3.34509889,2.88186936,7.10397023,-1.27842065,-1,-0.8954110178798131
1.37001495e+03,8.49985368e+01,-1.76503058e-07,6.02760361,4.43336455,1.66974985,-3.34509889,3.05888845,7.10983005,-1.26129965,-1,-0.8928921956689331
1.39945028e+03,8.49985314e+01,-1.82660535e-07,6.02745959,4.43680205,1.66280284,-3.34509890,3.23165862,7.11571640,-1.24409795,-1,-0.8903288987743998
1.42929526e+03,8.49985258e+01,-1.88352836e-07,6.02730482,4.44024823,1.65583310,-3.34509891,3.40097718,7.12162401,-1.22683161,-1,-0.8877299286065299
1.46010482e+03,8.49985196e+01,-1.94231286e-07,6.02713258,4.44371267,1.64881811,-3.34509894,3.58490088,7.12757894,-1.20942021,-1,-0.8850469605722006
1.49105199e+03,8.49985134e+01,-2.00136294e-07,6.02695784,4.44717971,1.64179666,-3.34509896,3.77090836,7.13354063,-1.19198812,-1,-0.8823520091394973
1.52300775e+03,8.49985066e+01,-2.08517423e-07,6.02677161,4.45067602,1.63471093,-3.34509897,4.01868454,7.13956963,-1.17435302,-1,-0.8795692273473296
1.55535673e+03,8.49984995e+01,-2.16910276e-07,6.02658053,4.45418156,1.62760430,-3.34509897,4.27310163,7.14562072,-1.15665092,-1,-0.8767522030443808
1.58836317e+03,8.49984921e+01,-2.24961276e-07,6.02638121,4.45770172,1.62046431,-3.34509898,4.53201207,7.15170719,-1.13884142,-1,-0.8738779255978022
1.62218305e+03,8.49984841e+01,-2.32870827e-07,6.02617397,4.46123835,1.61328743,-3.34509899,4.80179867,7.15783587,-1.12090444,-1,-0.870932811906959
1.65662159e+03,8.49984758e+01,-2.40147693e-07,6.02596267,4.46478386,1.60609077,-3.34509902,5.06808807,7.16399022,-1.10288803,-1,-0.8679338238665919
1.69160600e+03,8.49984671e+01,-2.46749594e-07,6.02574826,4.46833639,1.59887850,-3.34509906,5.32867623,7.17016578,-1.08480541,-1,-0.8648873001989423
1.72765632e+03,8.49984578e+01,-2.53491208e-07,6.02553293,4.47190164,1.59164035,-3.34509910,5.60813931,7.17638122,-1.06660076,-1,-0.861747954613113
1.76388853e+03,8.49984483e+01,-2.60256664e-07,6.02531745,4.47546905,1.58439778,-3.34509915,5.89082326,7.18260346,-1.04837528,-1,-0.8585927696236777
1.80131421e+03,8.49984380e+01,-2.69836566e-07,6.02510125,4.47906164,1.57710449,-3.34509915,6.25858712,7.18888735,-1.02996303,-1,-0.8553336544950281
1.83923100e+03,8.49984274e+01,-2.79193196e-07,6.02488459,4.48266269,1.56979406,-3.34509915,6.63079776,7.19519346,-1.01148273,-1,-0.8520317723670658
1.87778923e+03,8.49984163e+01,-2.88144175e-07,6.02466732,4.48627462,1.56246157,-3.34509916,7.00629284,7.20152832,-9.92914284e-01,-1,-0.8486740321542774
1.91740325e+03,8.49984044e+01,-2.96813380e-07,6.02445178,4.48990330,1.55509645,-3.34509918,7.39574259,7.20790890,-9.74205901e-01,-1,-0.845224351296411
1.95777705e+03,8.49983920e+01,-3.04528651e-07,6.02423891,4.49353831,1.54771998,-3.34509922,7.77479993,7.21431204,-9.55427789e-01,-1,-0.8417085070316956
1.99866020e+03,8.49983792e+01,-3.11715069e-07,6.02402794,4.49717749,1.54033613,-3.34509929,8.14961107,7.22073005,-9.36603572e-01,-1,-0.8381483073861087
2.04087815e+03,8.49983655e+01,-3.18981318e-07,6.02382320,4.50082658,1.53293560,-3.34509936,8.54938670,7.22718384,-9.17666105e-01,-1,-0.8344718702566944
2.08340944e+03,8.49983516e+01,-3.26910497e-07,6.02361936,4.50448081,1.52552521,-3.34509941,8.97375835,7.23365071,-8.98689069e-01,-1,-0.8307681467524058
2.12701122e+03,8.49983367e+01,-3.37104390e-07,6.02341858,4.50815263,1.51808118,-3.34509939,9.48215544,7.24016230,-8.79576854e-01,-1,-0.8269712024929013
2.17149249e+03,8.49983212e+01,-3.46674531e-07,6.02322006,4.51183597,1.51061525,-3.34509939,9.99241922,7.24670524,-8.60367642e-01,-1,-0.8230976702017432
2.21672108e+03,8.49983051e+01,-3.55850698e-07,6.02302377,4.51552839,1.50313226,-3.34509940,1.05074698e+01,7.25327357,-8.41079754e-01,-1,-0.8191590595494721
2.26277758e+03,8.49982883e+01,-3.64738495e-07,6.02283027,4.51923011,1.49563208,-3.34509943,1.10313077e+01,7.25986868,-8.21708780e-01,-1,-0.8151483525717325
2.31014782e+03,8.49982705e+01,-3.72021585e-07,6.02264526,4.52294066,1.48811846,-3.34509953,1.15303203e+01,7.26649569,-8.02237045e-01,-1,-0.8110232420638734
2.35823827e+03,8.49982521e+01,-3.79268725e-07,6.02246409,4.52665505,1.48059909,-3.34509964,1.20399554e+01,7.27313748,-7.82718873e-01,-1,-0.8068354139966596
2.40724162e+03,8.49982330e+01,-3.86503921e-07,6.02228774,4.53037428,1.47307247,-3.34509977,1.25640211e+01,7.27979790,-7.63142190e-01,-1,-0.8025680884774035
2.45723850e+03,8.49982131e+01,-3.95467979e-07,6.02211413,4.53410668,1.46552087,-3.34509980,1.31633198e+01,7.28649189,-7.43462510e-01,-1,-0.7982142440584569
2.50800421e+03,8.49981925e+01,-4.05283282e-07,6.02194277,4.53784883,1.45795087,-3.34509978,1.38047406e+01,7.29321116,-7.23705268e-01,-1,-0.7937934481376442
2.55998496e+03,8.49981709e+01,-4.14197915e-07,6.02177560,4.54160437,1.45035622,-3.34509979,1.44384398e+01,7.29996704,-7.03835320e-01,-1,-0.7892668437119249
2.61301971e+03,8.49981483e+01,-4.22687040e-07,6.02161203,4.54536927,1.44274463,-3.34509983,1.50740119e+01,7.30675023,-6.83880668e-01,-1,-0.7846484545184846
