star_age,star_mass,star_mdot,log_L,log_Teff,log_R,log_surf_z,v_wind_Km_per_s,log_center_T,log_center_Rho,phase
3.22520331e+02,2.99998193e+02,-5.64129790e-06,6.80927196,4.65620823,1.61489667,-3.34509863,1.12697558e+02,7.43617945,-7.01545558e-01,-1
3.27443404e+02,2.99998165e+02,-5.64210928e-06,6.80932806,4.65662257,1.61409605,-3.34509863,1.12871482e+02,7.43697612,-6.99154938e-01,-1
3.32366476e+02,2.99998138e+02,-5.64292067e-06,6.80938416,4.65703690,1.61329543,-3.34509863,1.13045407e+02,7.43777278,-6.96764318e-01,-1
3.37289549e+02,2.99998110e+02,-5.64373206e-06,6.80944026,4.65745124,1.61249481,-3.34509863,1.13219331e+02,7.43856945,-6.94373698e-01,-1
3.42212621e+02,2.99998082e+02,-5.64454344e-06,6.80949637,4.65786557,1.61169419,-3.34509864,1.13393256e+02,7.43936611,-6.91983078e-01,-1
3.47135694e+02,2.99998054e+02,-5.64535483e-06,6.80955247,4.65827991,1.61089357,-3.34509864,1.13567181e+02,7.44016277,-6.89592458e-01,-1
3.52058766e+02,2.99998026e+02,-5.64616622e-06,6.80960857,4.65869424,1.61009295,-3.34509864,1.13741105e+02,7.44095944,-6.87201838e-01,-1
3.56981839e+02,2.99997999e+02,-5.64697760e-06,6.80966467,4.65910858,1.60929233,-3.34509864,1.13915030e+02,7.44175610,-6.84811218e-01,-1
3.61904911e+02,2.99997971e+02,-5.64778899e-06,6.80972078,4.65952291,1.60849172,-3.34509865,1.14088954e+02,7.44255277,-6.82420598e-01,-1
3.66827984e+02,2.99997943e+02,-5.64860038e-06,6.80977688,4.65993725,1.60769110,-3.34509865,1.14262879e+02,7.44334943,-6.80029978e-01,-1
3.71751057e+02,2.99997915e+02,-5.64941176e-06,6.80983298,4.66035158,1.60689048,-3.34509865,1.14436804e+02,7.44414609,-6.77639358e-01,-1
3.76674129e+02,2.99997887e+02,-5.65022315e-06,6.80988908,4.66076592,1.60608986,-3.34509865,1.14610728e+02,7.44494276,-6.75248738e-01,-1
3.81597202e+02,2.99997859e+02,-5.65103454e-06,6.80994518,4.66118025,1.60528924,-3.34509866,1.14784653e+02,7.44573942,-6.72858118e-01,-1
3.86520274e+02,2.99997832e+02,-5.65184592e-06,6.81000129,4.66159459,1.60448862,-3.34509866,1.14958577e+02,7.44653608,-6.70467498e-01,-1
3.92316329e+02,2.99997799e+02,-5.65187259e-06,6.81005274,4.66207185,1.60355982,-3.34509866,1.15145834e+02,7.44745106,-6.67721936e-01,-1
3.98211977e+02,2.99997766e+02,-5.65180974e-06,6.81010366,4.66255629,1.60261640,-3.34509867,1.15334612e+02,7.44837953,-6.64935881e-01,-1
4.04107625e+02,2.99997732e+02,-5.65174689e-06,6.81015459,4.66304073,1.60167298,-3.34509867,1.15523389e+02,7.44930801,-6.62149825e-01,-1
4.10003274e+02,2.99997699e+02,-5.65168403e-06,6.81020551,4.66352518,1.60072956,-3.34509867,1.15712167e+02,7.45023648,-6.59363770e-01,-1
4.15898922e+02,2.99997666e+02,-5.65162118e-06,6.81025643,4.66400962,1.59978614,-3.34509868,1.15900944e+02,7.45116495,-6.56577714e-01,-1
4.21794571e+02,2.99997632e+02,-5.65155833e-06,6.81030736,4.66449406,1.59884271,-3.34509868,1.16089722e+02,7.45209343,-6.53791659e-01,-1
4.27690219e+02,2.99997599e+02,-5.65149547e-06,6.81035828,4.66497850,1.59789929,-3.34509868,1.16278500e+02,7.45302190,-6.51005604e-01,-1
4.33585867e+02,2.99997566e+02,-5.65143262e-06,6.81040920,4.66546294,1.59695587,-3.34509869,1.16467277e+02,7.45395037,-6.48219548e-01,-1
4.39481516e+02,2.99997532e+02,-5.65136977e-06,6.81046013,4.66594738,1.59601245,-3.34509869,1.16656055e+02,7.45487885,-6.45433493e-01,-1
4.45377164e+02,2.99997499e+02,-5.65130691e-06,6.81051105,4.66643182,1.59506903,-3.34509869,1.16844832e+02,7.45580732,-6.42647438e-01,-1
4.51272813e+02,2.99997466e+02,-5.65124406e-06,6.81056197,4.66691627,1.59412561,-3.34509869,1.17033610e+02,7.45673579,-6.39861382e-01,-1
4.57168461e+02,2.99997432e+02,-5.65118121e-06,6.81061290,4.66740071,1.59318219,-3.34509870,1.17222388e+02,7.45766426,-6.37075327e-01,-1
4.63064109e+02,2.99997399e+02,-5.65111836e-06,6.81066382,4.66788515,1.59223877,-3.34509870,1.17411165e+02,7.45859274,-6.34289272e-01,-1
4.69728476e+02,2.99997361e+02,-5.64977598e-06,6.81071209,4.66842321,1.59118677,-3.34509870,1.17597609e+02,7.45962256,-6.31199094e-01,-1
4.76624486e+02,2.99997323e+02,-5.64804803e-06,6.81075955,4.66897744,1.59010205,-3.34509871,1.17783350e+02,7.46068293,-6.28017274e-01,-1
4.83520495e+02,2.99997284e+02,-5.64632008e-06,6.81080702,4.66953167,1.58901733,-3.34509871,1.17969091e+02,7.46174329,-6.24835453e-01,-1
4.90416505e+02,2.99997245e+02,-5.64459214e-06,6.81085449,4.67008589,1.58793261,-3.34509871,1.18154832e+02,7.46280366,-6.21653633e-01,-1
4.97312514e+02,2.99997206e+02,-5.64286419e-06,6.81090195,4.67064012,1.58684789,-3.34509871,1.18340573e+02,7.46386403,-6.18471812e-01,-1
5.04208523e+02,2.99997167e+02,-5.64113625e-06,6.81094942,4.67119435,1.58576317,-3.34509871,1.18526314e+02,7.46492439,-6.15289992e-01,-1
5.11104533e+02,2.99997128e+02,-5.63940830e-06,6.81099689,4.67174857,1.58467845,-3.34509872,1.18712055e+02,7.46598476,-6.12108172e-01,-1
5.18000542e+02,2.99997090e+02,-5.63768036e-06,6.81104435,4.67230280,1.58359373,-3.34509872,1.18897796e+02,7.46704512,-6.08926351e-01,-1
5.24896552e+02,2.99997051e+02,-5.63595241e-06,6.81109182,4.67285703,1.58250901,-3.34509872,1.19083537e+02,7.46810549,-6.05744531e-01,-1
5.31792561e+02,2.99997012e+02,-5.63422446e-06,6.81113929,4.67341125,1.58142429,-3.34509872,1.19269278e+02,7.46916586,-6.02562710e-01,-1
5.39481726e+02,2.99996969e+02,-5.63117462e-06,6.81118404,4.67401745,1.58023428,-3.34509872,1.19449754e+02,7.47032460,-5.99085872e-01,-1
5.47283611e+02,2.99996925e+02,-5.62793690e-06,6.81122840,4.67463102,1.57902930,-3.34509873,1.19629481e+02,7.47149733,-5.95567107e-01,-1
5.55085496e+02,2.99996881e+02,-5.62469919e-06,6.81127277,4.67524460,1.57782433,-3.34509873,1.19809208e+02,7.47267006,-5.92048342e-01,-1
5.62887381e+02,2.99996837e+02,-5.62146148e-06,6.81131713,4.67585818,1.57661935,-3.34509873,1.19988935e+02,7.47384279,-5.88529577e-01,-1
5.70689266e+02,2.99996794e+02,-5.61822377e-06,6.81136149,4.67647176,1.57541438,-3.34509874,1.20168662e+02,7.47501552,-5.85010812e-01,-1
5.78491151e+02,2.99996750e+02,-5.61498606e-06,6.81140586,4.67708534,1.57420940,-3.34509874,1.20348389e+02,7.47618825,-5.81492046e-01,-1
5.86293036e+02,2.99996706e+02,-5.61174835e-06,6.81145022,4.67769892,1.57300443,-3.34509874,1.20528116e+02,7.47736098,-5.77973281e-01,-1
5.94094921e+02,2.99996662e+02,-5.60851063e-06,6.81149459,4.67831250,1.57179945,-3.34509874,1.20707844e+02,7.47853370,-5.74454516e-01,-1
6.02394092e+02,2.99996616e+02,-5.60445685e-06,6.81153755,4.67895676,1.57053241,-3.34509875,1.20883104e+02,7.47976468,-5.70760838e-01,-1
6.11066408e+02,2.99996568e+02,-5.59979072e-06,6.81157945,4.67962404,1.56921880,-3.34509875,1.21055012e+02,7.48103936,-5.66935912e-01,-1
6.19738724e+02,2.99996519e+02,-5.59512458e-06,6.81162135,4.68029132,1.56790519,-3.34509875,1.21226920e+02,7.48231404,-5.63110986e-01,-1
6.28411041e+02,2.99996471e+02,-5.59045845e-06,6.81166325,4.68095860,1.56659158,-3.34509876,1.21398828e+02,7.48358873,-5.59286060e-01,-1
6.37083357e+02,2.99996423e+02,-5.58579231e-06,6.81170516,4.68162588,1.56527797,-3.34509876,1.21570736e+02,7.48486341,-5.55461134e-01,-1
6.45755673e+02,2.99996374e+02,-5.58112618e-06,6.81174706,4.68229316,1.56396436,-3.34509876,1.21742644e+02,7.48613809,-5.51636208e-01,-1
6.54427989e+02,2.99996326e+02,-5.57646004e-06,6.81178896,4.68296044,1.56265075,-3.34509877,1.21914552e+02,7.48741277,-5.47811282e-01,-1
6.63299017e+02,2.99996277e+02,-5.57169122e-06,6.81183038,4.68363888,1.56131458,-3.34509877,1.22089080e+02,7.48870869,-5.43922669e-01,-1
6.72914169e+02,2.99996224e+02,-5.56653783e-06,6.81186997,4.68435911,1.55989391,-3.34509878,1.22273423e+02,7.49008416,-5.39795562e-01,-1
6.82529322e+02,2.99996170e+02,-5.56138444e-06,6.81190957,4.68507934,1.55847325,-3.34509878,1.22457765e+02,7.49145963,-5.35668455e-01,-1
6.92144475e+02,2.99996117e+02,-5.55623105e-06,6.81194916,4.68579957,1.55705259,-3.34509879,1.22642108e+02,7.49283510,-5.31541348e-01,-1
7.01759628e+02,2.99996064e+02,-5.55107766e-06,6.81198876,4.68651980,1.55563192,-3.34509880,1.22826451e+02,7.49421056,-5.27414241e-01,-1
7.11374781e+02,2.99996011e+02,-5.54592427e-06,6.81202835,4.68724003,1.55421126,-3.34509880,1.23010793e+02,7.49558603,-5.23287135e-01,-1
7.20989934e+02,2.99995958e+02,-5.54077088e-06,6.81206795,4.68796026,1.55279060,-3.34509881,1.23195136e+02,7.49696150,-5.19160028e-01,-1
7.30605087e+02,2.99995904e+02,-5.53561749e-06,6.81210754,4.68868049,1.55136993,-3.34509882,1.23379478e+02,7.49833697,-5.15032921e-01,-1
7.40495069e+02,2.99995850e+02,-5.53008931e-06,6.81214667,4.68941491,1.54992067,-3.34509882,1.23561838e+02,7.49973956,-5.10824468e-01,-1
7.51235627e+02,2.99995791e+02,-5.52340116e-06,6.81218437,4.69019323,1.54838289,-3.34509883,1.23738063e+02,7.50122610,-5.06364253e-01,-1
7.61976185e+02,2.99995732e+02,-5.51671300e-06,6.81222207,4.69097154,1.54684510,-3.34509884,1.23914287e+02,7.50271264,-5.01904038e-01,-1
7.72716743e+02,2.99995673e+02,-5.51002485e-06,6.81225977,4.69174986,1.54530732,-3.34509885,1.24090511e+02,7.50419917,-4.97443824e-01,-1
7.83457301e+02,2.99995615e+02,-5.50333670e-06,6.81229747,4.69252817,1.54376954,-3.34509885,1.24266736e+02,7.50568571,-4.92983609e-01,-1
7.94197859e+02,2.99995556e+02,-5.49664855e-06,6.81233517,4.69330649,1.54223176,-3.34509886,1.24442960e+02,7.50717225,-4.88523394e-01,-1
8.04938417e+02,2.99995497e+02,-5.48996040e-06,6.81237287,4.69408481,1.54069398,-3.34509887,1.24619184e+02,7.50865879,-4.84063180e-01,-1
8.15678976e+02,2.99995438e+02,-5.48327225e-06,6.81241057,4.69486312,1.53915619,-3.34509888,1.24795409e+02,7.51014533,-4.79602965e-01,-1
8.26419534e+02,2.99995379e+02,-5.47658409e-06,6.81244827,4.69564144,1.53761841,-3.34509888,1.24971633e+02,7.51163187,-4.75142750e-01,-1
8.37941869e+02,2.99995317e+02,-5.46642402e-06,6.81248518,4.69645909,1.53600157,-3.34509889,1.25085792e+02,7.51319398,-4.70455933e-01,-1
8.49821992e+02,2.99995253e+02,-5.45467498e-06,6.81252172,4.69729474,1.53434854,-3.34509889,1.25171547e+02,7.51479069,-4.65665408e-01,-1
8.61702115e+02,2.99995189e+02,-5.44292594e-06,6.81255827,4.69813039,1.53269551,-3.34509889,1.25257301e+02,7.51638739,-4.60874883e-01,-1
8.73582238e+02,2.99995125e+02,-5.43117691e-06,6.81259481,4.69896603,1.53104249,-3.34509890,1.25343056e+02,7.51798409,-4.56084359e-01,-1
8.85462361e+02,2.99995061e+02,-5.41942787e-06,6.81263135,4.69980168,1.52938946,-3.34509890,1.25428810e+02,7.51958079,-4.51293834e-01,-1
8.97342485e+02,2.99994996e+02,-5.40767883e-06,6.81266790,4.70063733,1.52773643,-3.34509890,1.25514565e+02,7.52117749,-4.46503309e-01,-1
9.09260806e+02,2.99994932e+02,-5.39588851e-06,6.81270440,4.70147469,1.52607996,-3.34509891,1.25600060e+02,7.52277749,-4.41702907e-01,-1
9.22157172e+02,2.99994864e+02,-5.38304098e-06,6.81273978,4.70235585,1.52433534,-3.34509891,1.25678926e+02,7.52446181,-4.36649589e-01,-1
9.35053539e+02,2.99994795e+02,-5.37019346e-06,6.81277516,4.70323700,1.52259072,-3.34509891,1.25757792e+02,7.52614612,-4.31596272e-01,-1
9.47949905e+02,2.99994726e+02,-5.35734593e-06,6.81281054,4.70411816,1.52084610,-3.34509892,1.25836658e+02,7.52783044,-4.26542955e-01,-1
9.60846271e+02,2.99994658e+02,-5.34449841e-06,6.81284592,4.70499932,1.51910148,-3.34509892,1.25915524e+02,7.52951476,-4.21489637e-01,-1
9.73742637e+02,2.99994589e+02,-5.33165088e-06,6.81288130,4.70588047,1.51735686,-3.34509893,1.25994390e+02,7.53119908,-4.16436320e-01,-1
9.86902533e+02,2.99994519e+02,-5.31846203e-06,6.81291633,4.70677214,1.51559104,-3.34509893,1.26069284e+02,7.53290362,-4.11322332e-01,-1
1.00077345e+03,2.99994446e+02,-5.30435226e-06,6.81295042,4.70769215,1.51376806,-3.34509894,1.26133461e+02,7.53466274,-4.06044652e-01,-1
1.01464436e+03,2.99994374e+02,-5.29024250e-06,6.81298451,4.70861217,1.51194507,-3.34509894,1.26197637e+02,7.53642186,-4.00766971e-01,-1
1.02851527e+03,2.99994301e+02,-5.27613273e-06,6.81301860,4.70953218,1.51012209,-3.34509895,1.26261814e+02,7.53818098,-3.95489291e-01,-1
1.04238619e+03,2.99994228e+02,-5.26202297e-06,6.81305269,4.71045220,1.50829910,-3.34509896,1.26325990e+02,7.53994010,-3.90211611e-01,-1
1.05625710e+03,2.99994155e+02,-5.24791320e-06,6.81308678,4.71137221,1.50647612,-3.34509896,1.26390167e+02,7.54169921,-3.84933930e-01,-1
1.07117895e+03,2.99994078e+02,-5.23483461e-06,6.81311908,4.71232657,1.50458355,-3.34509897,1.26492185e+02,7.54352446,-3.79458053e-01,-1
1.08611116e+03,2.99994001e+02,-5.22176619e-06,6.81315136,4.71328127,1.50269029,-3.34509898,1.26594576e+02,7.54535036,-3.73980220e-01,-1
1.10104337e+03,2.99993924e+02,-5.20869777e-06,6.81318364,4.71423597,1.50079704,-3.34509900,1.26696967e+02,7.54717626,-3.68502388e-01,-1
1.11597558e+03,2.99993846e+02,-5.19562935e-06,6.81321592,4.71519067,1.49890378,-3.34509901,1.26799358e+02,7.54900215,-3.63024556e-01,-1
1.13090779e+03,2.99993769e+02,-5.18256093e-06,6.81324821,4.71614537,1.49701052,-3.34509902,1.26901749e+02,7.55082805,-3.57546723e-01,-1
1.14597274e+03,2.99993692e+02,-5.16932419e-06,6.81328024,4.71710378,1.49510972,-3.34509903,1.27001315e+02,7.55266109,-3.52047469e-01,-1
1.16217677e+03,2.99993609e+02,-5.15464291e-06,6.81331008,4.71809402,1.49314415,-3.34509905,1.27076634e+02,7.55455536,-3.46364367e-01,-1
1.17838080e+03,2.99993527e+02,-5.13996164e-06,6.81333993,4.71908427,1.49117858,-3.34509906,1.27151953e+02,7.55644964,-3.40681266e-01,-1
1.19458483e+03,2.99993445e+02,-5.12528036e-06,6.81336978,4.72007452,1.48921301,-3.34509907,1.27227272e+02,7.55834392,-3.34998165e-01,-1
1.21078886e+03,2.99993363e+02,-5.11059908e-06,6.81339963,4.72106476,1.48724744,-3.34509909,1.27302591e+02,7.56023819,-3.29315064e-01,-1
1.22699289e+03,2.99993280e+02,-5.09591781e-06,6.81342948,4.72205501,1.48528187,-3.34509910,1.27377910e+02,7.56213247,-3.23631963e-01,-1
1.24319692e+03,2.99993198e+02,-5.08123653e-06,6.81345932,4.72304526,1.48331630,-3.34509912,1.27453229e+02,7.56402675,-3.17948861e-01,-1
1.26017198e+03,2.99993113e+02,-5.06194096e-06,6.81348787,4.72405770,1.48130568,-3.34509913,1.27417589e+02,7.56596386,-3.12137282e-01,-1
1.27767036e+03,2.99993026e+02,-5.03951345e-06,6.81351553,4.72508522,1.47926449,-3.34509913,1.27306637e+02,7.56793006,-3.06238500e-01,-1
1.29516875e+03,2.99992940e+02,-5.01708593e-06,6.81354320,4.72611273,1.47722329,-3.34509913,1.27195685e+02,7.56989625,-3.00339717e-01,-1
1.31266713e+03,2.99992853e+02,-4.99465842e-06,6.81357086,4.72714024,1.47518210,-3.34509913,1.27084733e+02,7.57186245,-2.94440934e-01,-1
1.33016552e+03,2.99992766e+02,-4.97223091e-06,6.81359852,4.72816776,1.47314090,-3.34509914,1.26973781e+02,7.57382864,-2.88542151e-01,-1
1.34807084e+03,2.99992678e+02,-4.94984246e-06,6.81362555,4.72920527,1.47107939,-3.34509914,1.26864269e+02,7.57581421,-2.82585056e-01,-1
1.36674354e+03,2.99992587e+02,-4.92752766e-06,6.81365138,4.73026164,1.46897956,-3.34509915,1.26757475e+02,7.57783632,-2.76517999e-01,-1
1.38541623e+03,2.99992497e+02,-4.90521286e-06,6.81367722,4.73131801,1.46687974,-3.34509916,1.26650680e+02,7.57985843,-2.70450943e-01,-1
1.40408893e+03,2.99992406e+02,-4.88289806e-06,6.81370305,4.73237438,1.46477991,-3.34509917,1.26543885e+02,7.58188053,-2.64383887e-01,-1
1.42276163e+03,2.99992316e+02,-4.86058326e-06,6.81372888,4.73343076,1.46268008,-3.34509917,1.26437091e+02,7.58390264,-2.58316830e-01,-1
1.44226237e+03,2.99992222e+02,-4.84039486e-06,6.81375375,4.73450345,1.46054713,-3.34509919,1.26386052e+02,7.58595675,-2.52153670e-01,-1
1.46219478e+03,2.99992128e+02,-4.82131499e-06,6.81377812,4.73558465,1.45839692,-3.34509922,1.26364078e+02,7.58802754,-2.45940411e-01,-1
1.48212719e+03,2.99992033e+02,-4.80223511e-06,6.81380249,4.73666585,1.45624670,-3.34509924,1.26342105e+02,7.59009833,-2.39727151e-01,-1
1.50205960e+03,2.99991938e+02,-4.78315524e-06,6.81382686,4.73774705,1.45409649,-3.34509927,1.26320132e+02,7.59216911,-2.33513891e-01,-1
1.52199201e+03,2.99991843e+02,-4.76407537e-06,6.81385123,4.73882825,1.45194627,-3.34509929,1.26298159e+02,7.59423990,-2.27300632e-01,-1
1.54250586e+03,2.99991747e+02,-4.74445296e-06,6.81387539,4.73992070,1.44977345,-3.34509932,1.26262374e+02,7.59633241,-2.21038665e-01,-1
1.56394499e+03,2.99991648e+02,-4.72396721e-06,6.81389921,4.74103105,1.44756466,-3.34509936,1.26204610e+02,7.59845947,-2.14699191e-01,-1
1.58538411e+03,2.99991548e+02,-4.70348147e-06,6.81392303,4.74214140,1.44535586,-3.34509939,1.26146846e+02,7.60058653,-2.08359716e-01,-1
1.60682323e+03,2.99991449e+02,-4.68299572e-06,6.81394685,4.74325175,1.44314707,-3.34509942,1.26089082e+02,7.60271359,-2.02020241e-01,-1
1.62826236e+03,2.99991350e+02,-4.66250998e-06,6.81397067,4.74436211,1.44093828,-3.34509945,1.26031319e+02,7.60484065,-1.95680767e-01,-1
1.64970148e+03,2.99991250e+02,-4.64202423e-06,6.81399450,4.74547246,1.43872948,-3.34509949,1.25973555e+02,7.60696772,-1.89341292e-01,-1
1.67190786e+03,2.99991149e+02,-4.61663381e-06,6.81401855,4.74660065,1.43648514,-3.34509950,1.25781600e+02,7.60912682,-1.82916892e-01,-1
1.69486703e+03,2.99991046e+02,-4.58643118e-06,6.81404284,4.74774633,1.43420590,-3.34509951,1.25457983e+02,7.61131736,-1.76409169e-01,-1
1.71782620e+03,2.99990943e+02,-4.55622855e-06,6.81406713,4.74889202,1.43192667,-3.34509951,1.25134366e+02,7.61350791,-1.69901445e-01,-1
1.74078537e+03,2.99990840e+02,-4.52602591e-06,6.81409142,4.75003771,1.42964744,-3.34509952,1.24810749e+02,7.61569845,-1.63393721e-01,-1
1.76374454e+03,2.99990737e+02,-4.49582328e-06,6.81411570,4.75118340,1.42736820,-3.34509952,1.24487132e+02,7.61788899,-1.56885997e-01,-1
1.78773370e+03,2.99990632e+02,-4.46654916e-06,6.81414125,4.75235208,1.42504362,-3.34509954,1.24184406e+02,7.62012103,-1.50253547e-01,-1
1.81205815e+03,2.99990525e+02,-4.43757729e-06,6.81416721,4.75352824,1.42270429,-3.34509955,1.23888480e+02,7.62236657,-1.43580497e-01,-1
1.83638259e+03,2.99990419e+02,-4.40860542e-06,6.81419317,4.75470440,1.42036495,-3.34509956,1.23592554e+02,7.62461211,-1.36907447e-01,-1
1.86070704e+03,2.99990313e+02,-4.37963355e-06,6.81421913,4.75588056,1.41802561,-3.34509958,1.23296628e+02,7.62685765,-1.30234397e-01,-1
1.88568134e+03,2.99990206e+02,-4.35066568e-06,6.81424679,4.75707275,1.41565505,-3.34509959,1.22998436e+02,7.62913289,-1.23471138e-01,-1
1.91131467e+03,2.99990097e+02,-4.32170186e-06,6.81427616,4.75828121,1.41325282,-3.34509961,1.22697947e+02,7.63143825,-1.16616398e-01,-1
1.93694800e+03,2.99989988e+02,-4.29273805e-06,6.81430553,4.75948966,1.41085059,-3.34509963,1.22397458e+02,7.63374362,-1.09761657e-01,-1
1.96258133e+03,2.99989879e+02,-4.26377424e-06,6.81433490,4.76069812,1.40844836,-3.34509965,1.22096969e+02,7.63604898,-1.02906917e-01,-1
1.98890390e+03,2.99989768e+02,-4.23675478e-06,6.81436780,4.76192709,1.40600687,-3.34509969,1.21852072e+02,7.63839358,-9.59334018e-02,-1
2.01594125e+03,2.99989657e+02,-4.21175173e-06,6.81440436,4.76317733,1.40352467,-3.34509974,1.21664827e+02,7.64077888,-8.88367103e-02,-1
2.04297861e+03,2.99989545e+02,-4.18674869e-06,6.81444092,4.76442758,1.40104246,-3.34509980,1.21477583e+02,7.64316418,-8.17400188e-02,-1
2.07001596e+03,2.99989433e+02,-4.16174564e-06,6.81447749,4.76567782,1.39856026,-3.34509986,1.21290338e+02,7.64554948,-7.46433273e-02,-1
2.09705332e+03,2.99989321e+02,-4.13674260e-06,6.81451405,4.76692806,1.39607805,-3.34509991,1.21103094e+02,7.64793478,-6.75466358e-02,-1
2.12561580e+03,2.99989207e+02,-4.11051977e-06,6.81456197,4.76823592,1.39348629,-3.34509999,1.20885061e+02,7.65043220,-6.01105386e-02,-1
2.15428641e+03,2.99989092e+02,-4.08421047e-06,6.81461069,4.76954787,1.39088676,-3.34510006,1.20664844e+02,7.65293756,-5.26503787e-02,-1
2.18295702e+03,2.99988977e+02,-4.05790117e-06,6.81465942,4.77085982,1.38828723,-3.34510013,1.20444628e+02,7.65544292,-4.51902187e-02,-1
2.21162764e+03,2.99988863e+02,-4.03159186e-06,6.81470814,4.77217176,1.38568770,-3.34510021,1.20224412e+02,7.65794829,-3.77300588e-02,-1
2.24029825e+03,2.99988748e+02,-4.00528256e-06,6.81475687,4.77348371,1.38308817,-3.34510028,1.20004196e+02,7.66045365,-3.02698989e-02,-1
2.27022104e+03,2.99988632e+02,-3.96926722e-06,6.81481511,4.77484898,1.38038675,-3.34510030,1.19492633e+02,7.66306272,-2.24963404e-02,-1
2.30050364e+03,2.99988516e+02,-3.93046287e-06,6.81487608,4.77622957,1.37765606,-3.34510030,1.18897351e+02,7.66570160,-1.46327273e-02,-1
2.33078624e+03,2.99988400e+02,-3.89165852e-06,6.81493705,4.77761016,1.37492537,-3.34510030,1.18302069e+02,7.66834047,-6.76911406e-03,-1
