star_age,star_mass,star_mdot,log_L,log_Teff,log_R,log_surf_z,v_wind_Km_per_s,log_center_T,log_center_Rho,phase,x
3.78740688e+02,2.79999981,-4.23527182e-10,2.84665026,3.66362462,1.61875304,-3.34509851,4.39175767e-05,5.71495739,-3.41590668,-1,-1.0
3.96672029e+02,2.79999981,-4.18182233e-10,2.84310374,3.66378693,1.61665516,-3.34509851,4.38485804e-05,5.71699021,-3.40982088,-1,-0.9999881827145167
4.06275217e+02,2.79999980,-4.13512770e-10,2.87076905,3.67153254,1.61499661,-3.34509851,6.37105216e-05,5.71816230,-3.40632083,-1,-0.9999818539288367
4.18392507e+02,2.79999980,-4.45631754e-10,2.89098482,3.67754540,1.61307875,-3.34509851,8.61336208e-05,5.71969084,-3.40175191,-1,-0.9999738682753814
4.38095744e+02,2.79999979,-4.52869370e-10,2.88714085,3.67785169,1.61054419,-3.34509848,8.90279789e-05,5.72214803,-3.39439229,-1,-0.9999608832578875
4.58755474e+02,2.79999978,-4.46978498e-10,2.88299364,3.67812091,1.60793216,-3.34509847,8.93383771e-05,5.72468155,-3.38680632,-1,-0.9999472678831413
4.80365179e+02,2.79999977,-4.40910508e-10,2.87872209,3.67839639,1.60524542,-3.34509847,8.96385083e-05,5.72728760,-3.37900058,-1,-0.9999330264466979
5.02944031e+02,2.79999976,-4.34334947e-10,2.87433062,3.67867939,1.60248368,-3.34509847,8.98603121e-05,5.72996663,-3.37097718,-1,-0.999918146313641
5.26553988e+02,2.79999975,-4.27314127e-10,2.86981174,3.67896985,1.59964332,-3.34509847,9.00120381e-05,5.73272213,-3.36272452,-1,-0.999902586651811
5.51373749e+02,2.79999974,-4.20028994e-10,2.86514783,3.67926876,1.59671355,-3.34509847,9.01309482e-05,5.73556462,-3.35421061,-1,-0.9998862296932677
5.77338300e+02,2.79999973,-4.12601446e-10,2.86039687,3.67958703,1.59370153,-3.34509847,9.02625505e-05,5.73848677,-3.34545704,-1,-0.9998691182841648
6.04480286e+02,2.79999972,-4.05088637e-10,2.85555850,3.67992465,1.59060709,-3.34509847,9.04185600e-05,5.74148916,-3.33646460,-1,-0.9998512309104796
6.32835418e+02,2.79999971,-3.97465328e-10,2.85050935,3.68025000,1.58743182,-3.34509847,9.05205679e-05,5.74457047,-3.32723597,-1,-0.9998325440376037
6.62564042e+02,2.79999969,-3.89873831e-10,2.84531355,3.68058275,1.58416843,-3.34509847,9.06417138e-05,5.74773800,-3.31774964,-1,-0.9998129519927681
6.93729492e+02,2.79999968,-3.82181976e-10,2.83996240,3.68092079,1.58081677,-3.34509847,9.07466582e-05,5.75099117,-3.30800478,-1,-0.9997924130369887
7.26253548e+02,2.79999967,-3.74433764e-10,2.83447580,3.68126519,1.57738468,-3.34509847,9.08454394e-05,5.75432308,-3.29802271,-1,-0.999770978719565
7.60344783e+02,2.79999966,-3.66599185e-10,2.82887539,3.68162590,1.57386305,-3.34509847,9.09494393e-05,5.75774265,-3.28777983,-1,-0.9997485115847047
7.96041840e+02,2.79999965,-3.58787709e-10,2.82321554,3.68201629,1.57025234,-3.34509847,9.11142664e-05,5.76124872,-3.27727784,-1,-0.9997249861655247
8.33331156e+02,2.79999963,-3.50947248e-10,2.81733250,3.68239234,1.56655872,-3.34509847,9.12273139e-05,5.76483618,-3.26653083,-1,-0.9997004114004445
8.72445303e+02,2.79999962,-3.43185899e-10,2.81129977,3.68277636,1.56277432,-3.34509847,9.13624404e-05,5.76851195,-3.25552130,-1,-0.9996746340176189
9.13292102e+02,2.79999960,-3.35365913e-10,2.80511799,3.68316419,1.55890777,-3.34509847,9.14740098e-05,5.77226793,-3.24427105,-1,-0.9996477147657424
9.56097828e+02,2.79999959,-3.27493484e-10,2.79879108,3.68356029,1.55495211,-3.34509847,9.15693111e-05,5.77611061,-3.23275835,-1,-0.9996195045228798
1.00088569e+03,2.79999958,-3.19684016e-10,2.79240957,3.68398604,1.55090985,-3.34509847,9.17260972e-05,5.78003730,-3.22099363,-1,-0.9995899879936119
1.04766831e+03,2.79999956,-3.12027388e-10,2.78599784,3.68444673,1.54678260,-3.34509847,9.19831335e-05,5.78404669,-3.20898055,-1,-0.9995591568596661
1.09677117e+03,2.79999955,-3.04267244e-10,2.77927920,3.68487590,1.54256495,-3.34509847,9.21100815e-05,5.78814445,-3.19669925,-1,-0.9995267966187524
1.14807217e+03,2.79999953,-2.96567348e-10,2.77241617,3.68530981,1.53826562,-3.34509847,9.22363342e-05,5.79232229,-3.18418045,-1,-0.9994929877383916
1.20168964e+03,2.79999952,-2.88916162e-10,2.76541579,3.68575036,1.53388433,-3.34509847,9.23607929e-05,5.79658065,-3.17141943,-1,-0.9994576522356045
1.25786256e+03,2.79999950,-2.81273450e-10,2.75836696,3.68622235,1.52941594,-3.34509847,9.25229192e-05,5.80092386,-3.15840141,-1,-0.999420632615484
1.31666171e+03,2.79999948,-2.73745248e-10,2.75109511,3.68668048,1.52486376,-3.34509847,9.26509492e-05,5.80535020,-3.14513586,-1,-0.9993818822319112
1.37816437e+03,2.79999947,-2.66305637e-10,2.74374452,3.68715968,1.52023004,-3.34509847,9.28162154e-05,5.80985656,-3.13162986,-1,-0.9993413501550742
1.44248808e+03,2.79999945,-2.58923752e-10,2.73626003,3.68764603,1.51551511,-3.34509847,9.29741976e-05,5.81444296,-3.11788494,-1,-0.9992989589226273
1.50977847e+03,2.79999943,-2.51630931e-10,2.72860497,3.68812941,1.51072081,-3.34509847,9.31097370e-05,5.81910751,-3.10390543,-1,-0.9992546125600819
1.58017390e+03,2.79999942,-2.44381134e-10,2.72082915,3.68862211,1.50584751,-3.34509847,9.32307298e-05,5.82384926,-3.08969588,-1,-0.9992082198840947
1.65382429e+03,2.79999940,-2.37266182e-10,2.71288995,3.68911261,1.50089690,-3.34509847,9.33436290e-05,5.82866663,-3.07525803,-1,-0.9991596820929397
1.73089813e+03,2.79999938,-2.30254848e-10,2.70499308,3.68965316,1.49586738,-3.34509847,9.35544363e-05,5.83356079,-3.06058898,-1,-0.9991088881467104
1.81151447e+03,2.79999936,-2.23373510e-10,2.69682759,3.69016379,1.49076337,-3.34509847,9.36888969e-05,5.83852832,-3.04569771,-1,-0.9990557595879261
1.89586082e+03,2.79999934,-2.16565353e-10,2.68860464,3.69069751,1.48558445,-3.34509847,9.38435616e-05,5.84356952,-3.03058353,-1,-0.9990001728419363
1.98409831e+03,2.79999933,-2.09860803e-10,2.68033069,3.69125648,1.48032953,-3.34509847,9.40344712e-05,5.84868586,-3.01524644,-1,-0.9989420217192925
2.07637811e+03,2.79999931,-2.03337807e-10,2.67181786,3.69179062,1.47500484,-3.34509847,9.41794550e-05,5.85387104,-2.99970250,-1,-0.9988812065944815
2.17288202e+03,2.79999929,-1.96905723e-10,2.66318913,3.69233038,1.46961095,-3.34509847,9.43064023e-05,5.85912482,-2.98395382,-1,-0.9988176076559122
2.27378437e+03,2.79999927,-1.90476591e-10,2.65449331,3.69288800,1.46414781,-3.34509847,9.43976843e-05,5.86444683,-2.96800007,-1,-0.9987511100149447
2.37949214e+03,2.79999925,-1.84219984e-10,2.64559839,3.69343063,1.45861509,-3.34509847,9.44537837e-05,5.86983689,-2.95184115,-1,-0.9986814454596895
2.48998203e+03,2.79999923,-1.78214812e-10,2.63661128,3.69398187,1.45301904,-3.34509847,9.45747614e-05,5.87528964,-2.93549227,-1,-0.998608629345538
2.60547578e+03,2.79999921,-1.72284671e-10,2.62758835,3.69455594,1.44735945,-3.34509847,9.47025611e-05,5.88080460,-2.91895484,-1,-0.9985325155392539
2.72641250e+03,2.79999919,-1.66467878e-10,2.61840441,3.69511899,1.44164139,-3.34509847,9.47724637e-05,5.88629339,-2.90239388,-1,-0.9984528146543254
2.85287763e+03,2.79999917,-1.60796603e-10,2.60914282,3.69569290,1.43586276,-3.34509847,9.48552885e-05,5.89188134,-2.88558696,-1,-0.9983694703832589
2.98501669e+03,2.79999915,-1.55251468e-10,2.59981700,3.69628022,1.43002521,-3.34509847,9.49485215e-05,5.89756879,-2.86852438,-1,-0.9982823868240586
3.12344374e+03,2.79999913,-1.49884171e-10,2.59030180,3.69685078,1.42412649,-3.34509847,9.50053076e-05,5.90332101,-2.85127837,-1,-0.9981911592929742
3.26807544e+03,2.79999910,-1.44646580e-10,2.58080989,3.69745468,1.41817273,-3.34509847,9.51219880e-05,5.90912890,-2.83386432,-1,-0.9980958427135375
3.41941159e+03,2.79999908,-1.39517629e-10,2.57111933,3.69803581,1.41216519,-3.34509847,9.51488440e-05,5.91498809,-2.81629596,-1,-0.9979961077027263
3.57765251e+03,2.79999906,-1.34519285e-10,2.56135990,3.69862601,1.40610509,-3.34509847,9.51755674e-05,5.92090080,-2.79856409,-1,-0.9978918222437202
3.74314999e+03,2.79999904,-1.29666514e-10,2.55148936,3.69921439,1.39999305,-3.34509847,9.51880485e-05,5.92686577,-2.78067442,-1,-0.9977827544964767
3.91631040e+03,2.79999902,-1.24936688e-10,2.54171715,3.69985404,1.39382765,-3.34509847,9.52893024e-05,5.93288381,-2.76262631,-1,-0.9976686366511145
4.09738708e+03,2.79999900,-1.20361067e-10,2.53168459,3.70045191,1.38761564,-3.34509847,9.52946335e-05,5.93894926,-2.74443709,-1,-0.9975493017490606
4.28661522e+03,2.79999897,-1.15947419e-10,2.52158437,3.70105461,1.38136012,-3.34509847,9.53188115e-05,5.94505836,-2.72611687,-1,-0.9974245947931307
4.48477460e+03,2.79999895,-1.11635742e-10,2.51139958,3.70165905,1.37505885,-3.34509847,9.53039067e-05,5.95121432,-2.70765315,-1,-0.9972940018851796
4.69178229e+03,2.79999893,-1.07420804e-10,2.50115681,3.70227018,1.36871519,-3.34509847,9.52610668e-05,5.95741284,-2.68906446,-1,-0.9971575776785366
4.90843592e+03,2.79999891,-1.03382361e-10,2.49081455,3.70287780,1.36232882,-3.34509847,9.52353262e-05,5.96365385,-2.67034615,-1,-0.9970147965113779
5.13504638e+03,2.79999888,-9.94663834e-11,2.48051033,3.70351653,1.35589925,-3.34509847,9.52612949e-05,5.96993770,-2.65149955,-1,-0.9968654534979735
5.37180452e+03,2.79999886,-9.56635271e-11,2.47003156,3.70412981,1.34943330,-3.34509847,9.52075067e-05,5.97625881,-2.63254026,-1,-0.9967094228625138
5.61968047e+03,2.79999884,-9.19735583e-11,2.45949795,3.70474841,1.34292931,-3.34509847,9.51378257e-05,5.98261879,-2.61346524,-1,-0.996546065260559
5.87883557e+03,2.79999881,-8.84362863e-11,2.44889417,3.70536719,1.33638986,-3.34509847,9.50887631e-05,5.98901559,-2.59428310,-1,-0.9963752743642645
6.14968918e+03,2.79999879,-8.49904612e-11,2.43824211,3.70599082,1.32981656,-3.34509847,9.50117424e-05,5.99544706,-2.57499422,-1,-0.9961967738029539
6.43321229e+03,2.79999877,-8.16788308e-11,2.42759645,3.70663377,1.32320783,-3.34509847,9.49820958e-05,6.00191376,-2.55559828,-1,-0.996009923665422
6.72966343e+03,2.79999874,-7.84738263e-11,2.41681744,3.70725920,1.31656746,-3.34509847,9.48943294e-05,6.00841265,-2.53610333,-1,-0.9958145535727319
7.03956048e+03,2.79999872,-7.53765975e-11,2.40600573,3.70789128,1.30989745,-3.34509847,9.48070717e-05,6.01494130,-2.51652121,-1,-0.9956103222266054
7.36359283e+03,2.79999870,-7.23860910e-11,2.39512825,3.70852156,1.30319816,-3.34509847,9.47039747e-05,6.02149987,-2.49685124,-1,-0.9953967752985885
7.70272432e+03,2.79999867,-6.95002266e-11,2.38416701,3.70914508,1.29647050,-3.34509847,9.45696866e-05,6.02808779,-2.47708757,-1,-0.9951732775895379
8.05738492e+03,2.79999865,-6.67320513e-11,2.37329269,3.70980543,1.28971263,-3.34509847,9.45260262e-05,6.03470738,-2.45723111,-1,-0.9949395457364725
8.42807098e+03,2.79999862,-6.40420247e-11,2.36225648,3.71043704,1.28293132,-3.34509847,9.43805585e-05,6.04135184,-2.43730144,-1,-0.9946952526300228
8.81567354e+03,2.79999860,-6.14618350e-11,2.35120588,3.71107708,1.27612594,-3.34509847,9.42607574e-05,6.04802057,-2.41730018,-1,-0.9944398110484045
9.22121813e+03,2.79999858,-5.89750454e-11,2.34007966,3.71170869,1.26929959,-3.34509847,9.41085960e-05,6.05471045,-2.39723161,-1,-0.994172545136935
9.64536946e+03,2.79999855,-5.65833038e-11,2.32889105,3.71233375,1.26245519,-3.34509847,9.39364956e-05,6.06141966,-2.37710439,-1,-0.9938930168320117
1.00889822e+04,2.79999853,-5.42789769e-11,2.31776834,3.71298564,1.25559004,-3.34509847,9.38087330e-05,6.06815079,-2.35691526,-1,-0.9936006628807592
1.05527272e+04,2.79999850,-5.20604581e-11,2.30651317,3.71361245,1.24870884,-3.34509847,9.36179311e-05,6.07489934,-2.33667296,-1,-0.9932950411731327
1.10376382e+04,2.79999848,-4.99305634e-11,2.29522398,3.71423789,1.24181336,-3.34509847,9.34231149e-05,6.08166405,-2.31638207,-1,-0.9929754704438164
1.15447200e+04,2.79999845,-4.78731642e-11,2.28391046,3.71486311,1.23490616,-3.34509847,9.32017574e-05,6.08844205,-2.29605356,-1,-0.992641288499812
1.20752693e+04,2.79999843,-4.59041712e-11,2.27255183,3.71548059,1.22799189,-3.34509847,9.29697267e-05,6.09522766,-2.27570136,-1,-0.9922916407773654
1.26304085e+04,2.79999840,-4.40151642e-11,2.26130605,3.71613057,1.22106903,-3.34509847,9.28028961e-05,6.10202184,-2.25531981,-1,-0.9919257875815911
1.32108150e+04,2.79999838,-4.22056676e-11,2.24994347,3.71675090,1.21414709,-3.34509847,9.25772939e-05,6.10881582,-2.23493704,-1,-0.9915432824858004
1.38178403e+04,2.79999836,-4.04649087e-11,2.23857254,3.71736621,1.20723101,-3.34509847,9.23245689e-05,6.11560555,-2.21456572,-1,-0.9911432348114138
1.44527374e+04,2.79999833,-3.87998516e-11,2.22720751,3.71797753,1.20032584,-3.34509847,9.20680401e-05,6.12238634,-2.19422439,-1,-0.9907248187942728
1.51168071e+04,2.79999831,-3.72044126e-11,2.21586209,3.71858373,1.19344073,-3.34509847,9.17955856e-05,6.12914922,-2.17393508,-1,-0.9902871771686014
1.58115754e+04,2.79999828,-3.56783690e-11,2.20462229,3.71920305,1.18658219,-3.34509847,9.15518634e-05,6.13588748,-2.15372156,-1,-0.9898293042551453
1.65385097e+04,2.79999825,-3.42228625e-11,2.19341038,3.71980984,1.17976266,-3.34509847,9.12829964e-05,6.14258843,-2.13361799,-1,-0.9893502329937879
1.72995248e+04,2.79999823,-3.28458357e-11,2.18224536,3.72040035,1.17299913,-3.34509847,9.10159449e-05,6.14923500,-2.11367740,-1,-0.9888487014745445
1.80959578e+04,2.79999820,-3.15290350e-11,2.17121174,3.72098833,1.16630637,-3.34509847,9.07336679e-05,6.15581322,-2.09394030,-1,-0.9883238285088629
1.89294465e+04,2.79999818,-3.02829275e-11,2.16030530,3.72156249,1.15970483,-3.34509847,9.04464910e-05,6.16230390,-2.07446768,-1,-0.987774534737973
1.98017442e+04,2.79999815,-2.91035693e-11,2.14956114,3.72212038,1.15321696,-3.34509847,9.01447808e-05,6.16868459,-2.05532857,-1,-0.9871996646851798
2.07153815e+04,2.79999813,-2.79896747e-11,2.13904693,3.72266496,1.14687069,-3.34509847,8.98318521e-05,6.17492716,-2.03660684,-1,-0.9865975506100368
2.16732294e+04,2.79999810,-2.69521485e-11,2.12891207,3.72321940,1.14069438,-3.34509847,8.95916895e-05,6.18100308,-2.01838137,-1,-0.9859663004384028
2.26758169e+04,2.79999807,-2.59863235e-11,2.11901565,3.72373354,1.13471789,-3.34509847,8.93230917e-05,6.18688301,-2.00074083,-1,-0.9853055655435902
2.37272527e+04,2.79999805,-2.50881194e-11,2.10955688,3.72423951,1.12897658,-3.34509847,8.90769127e-05,6.19253202,-1.98379504,-1,-0.984612638170453
2.48284776e+04,2.79999802,-2.42570202e-11,2.10045844,3.72470646,1.12349344,-3.34509847,8.88040324e-05,6.19792756,-1.96760834,-1,-0.9838868983038911
2.59840636e+04,2.79999799,-2.34955167e-11,2.09182739,3.72514589,1.11829906,-3.34509847,8.85398334e-05,6.20303964,-1.95227042,-1,-0.9831253328603193
2.71947287e+04,2.79999797,-2.27957232e-11,2.08367589,3.72555944,1.11339622,-3.34509847,8.82783601e-05,6.20786562,-1.93779225,-1,-0.982327468656445
2.84637354e+04,2.79999794,-2.21571679e-11,2.07600301,3.72594603,1.10878659,-3.34509847,8.80306229e-05,6.21240360,-1.92417647,-1,-0.9814911556080167
2.97942748e+04,2.79999791,-2.15739614e-11,2.06879292,3.72630849,1.10445664,-3.34509847,8.77978825e-05,6.21666704,-1.91138472,-1,-0.9806142906855007
3.11891908e+04,2.79999788,-2.10395080e-11,2.06199254,3.72664974,1.10037395,-3.34509847,8.75831680e-05,6.22068737,-1.89932386,-1,-0.9796949996744593
3.26505943e+04,2.79999785,-2.05417662e-11,2.05554896,3.72698282,1.09648599,-3.34509847,8.73913520e-05,6.22451641,-1.88783818,-1,-0.9787318914291925
3.41802531e+04,2.79999782,-2.00759739e-11,2.04931630,3.72730163,1.09273205,-3.34509847,8.72153731e-05,6.22821370,-1.87674642,-1,-0.9777238009170753
3.57818274e+04,2.79999779,-1.96359340e-11,2.04316986,3.72760648,1.08904912,-3.34509847,8.70584608e-05,6.23184151,-1.86586342,-1,-0.9766683159577624
3.74616171e+04,2.79999775,-1.92030742e-11,2.03699760,3.72791204,1.08535187,-3.34509847,8.68946186e-05,6.23548357,-1.85493703,-1,-0.9755612847303264
3.92148131e+04,2.79999772,-1.87700335e-11,2.03066873,3.72822303,1.08156546,-3.34509847,8.67281269e-05,6.23921399,-1.84374559,-1,-0.9744058765742842
4.10518720e+04,2.79999769,-1.83248869e-11,2.02403039,3.72854992,1.07759250,-3.34509847,8.65462780e-05,6.24312844,-1.83200139,-1,-0.9731952002801392
4.29720425e+04,2.79999765,-1.78618247e-11,2.01692698,3.72889784,1.07334496,-3.34509847,8.63550114e-05,6.24731377,-1.81944726,-1,-0.9719297509768715
4.49760401e+04,2.79999762,-1.73689004e-11,2.00922123,3.72927397,1.06873983,-3.34509847,8.61271199e-05,6.25185213,-1.80583478,-1,-0.9706090571287627
4.70683510e+04,2.79999758,-1.68396017e-11,2.00072968,3.72968805,1.06366589,-3.34509847,8.58654341e-05,6.25685258,-1.79083585,-1,-0.9692301621969718
4.92513193e+04,2.79999755,-1.62672929e-11,1.99134175,3.73016597,1.05801610,-3.34509847,8.55951674e-05,6.26242124,-1.77412890,-1,-0.9677915213500833
5.15233219e+04,2.79999751,-1.56485272e-11,1.98077829,3.73067716,1.05171198,-3.34509847,8.52372086e-05,6.26863576,-1.75548191,-1,-0.966294204259131
5.38861527e+04,2.79999747,-1.49823575e-11,1.96898883,3.73124973,1.04467211,-3.34509847,8.48245701e-05,6.27557714,-1.73465476,-1,-0.9647370286908159
5.63399287e+04,2.79999744,-1.42766859e-11,1.95593139,3.73188173,1.03687940,-3.34509847,8.43588212e-05,6.28326317,-1.71159437,-1,-0.9631199175386682
5.88781753e+04,2.79999740,-1.35448633e-11,1.94173920,3.73258698,1.02837280,-3.34509847,8.38835524e-05,6.28989056,-1.68183682,-1,-0.961447137756096
6.15126220e+04,2.79999737,-1.28190498e-11,1.92724848,3.73336889,1.01956361,-3.34509847,8.34347015e-05,6.29494653,-1.64570725,-1,-0.9597109592547541
6.42667429e+04,2.79999733,-1.21482533e-11,1.91280710,3.73413387,1.01081296,-3.34509847,8.30496101e-05,6.30092162,-1.61012068,-1,-0.9578959119066047
6.71492373e+04,2.79999730,-1.15228631e-11,1.89853400,3.73489306,1.00215803,-3.34509847,8.26964678e-05,6.30729463,-1.57553681,-1,-0.9559962626149647
7.01653887e+04,2.79999727,-1.09372279e-11,1.88444663,3.73564123,9.93618008e-01,-3.34509847,8.23450639e-05,6.31399717,-1.54153472,-1,-0.954008529396649
7.33228451e+04,2.79999723,-1.03881457e-11,1.87058942,3.73638632,9.85199226e-01,-3.34509848,8.20020177e-05,6.32092437,-1.50795856,-1,-0.9519276719928518
7.66269616e+04,2.79999720,-9.87654575e-12,1.85699127,3.73713437,9.76904045e-01,-3.34509848,8.17068198e-05,6.32800587,-1.47468786,-1,-0.9497501612338644
8.00832556e+04,2.79999717,-9.39761107e-12,1.84358882,3.73786773,9.68736106e-01,-3.34509848,8.14110430e-05,6.33520314,-1.44163008,-1,-0.9474723609894651
8.37002567e+04,2.79999713,-8.94872352e-12,1.83048036,3.73860893,9.60699471e-01,-3.34509848,8.11491978e-05,6.34248711,-1.40872802,-1,-0.9450886500003038
8.74868541e+04,2.79999710,-8.52920578e-12,1.81760722,3.73934056,9.52799634e-01,-3.34509848,8.08988976e-05,6.34983914,-1.37592672,-1,-0.942593170019966
9.14485328e+04,2.79999707,-8.13888400e-12,1.80500062,3.74006812,9.45041218e-01,-3.34509848,8.06920096e-05,6.35724162,-1.34317690,-1,-0.9399823062707909
9.55943242e+04,2.79999704,-7.77273085e-12,1.79269974,3.74079994,9.37427149e-01,-3.34509848,8.05114747e-05,6.36469306,-1.31043626,-1,-0.9372501067923472
9.99349983e+04,2.79999700,-7.43060845e-12,1.78068609,3.74152696,9.29966273e-01,-3.34509848,8.03531470e-05,6.37219197,-1.27767086,-1,-0.9343894738352442
1.04475845e+05,2.79999697,-7.10979137e-12,1.76901871,3.74226349,9.22659538e-01,-3.34509848,8.02336070e-05,6.37974153,-1.24484398,-1,-0.9313969211985068
1.09232401e+05,2.79999694,-6.81332089e-12,1.75767410,3.74299692,9.15520353e-01,-3.34509848,8.01752748e-05,6.38734231,-1.21192221,-1,-0.9282622097360852
1.14208065e+05,2.79999690,-6.53593762e-12,1.74669762,3.74373661,9.08552738e-01,-3.34509848,8.01569643e-05,6.39500277,-1.17888554,-1,-0.9249830996038891
1.19420625e+05,2.79999687,-6.27799418e-12,1.73614246,3.74449085,9.01766688e-01,-3.34509848,8.02056282e-05,6.40273429,-1.14566386,-1,-0.9215478679824051
1.24875501e+05,2.79999684,-6.03841738e-12,1.72599244,3.74524934,8.95174687e-01,-3.34509848,8.03085938e-05,6.41053610,-1.11226053,-1,-0.9179529429308997
1.30587595e+05,2.79999680,-5.81691121e-12,1.71635278,3.74603285,8.88787847e-01,-3.34509848,8.05098073e-05,6.41842550,-1.07861783,-1,-0.9141885035894457
1.36570090e+05,2.79999677,-5.61393342e-12,1.70718349,3.74682073,8.82627428e-01,-3.34509848,8.07940185e-05,6.42641527,-1.04472519,-1,-0.9102458619700935
1.42832089e+05,2.79999674,-5.42658970e-12,1.69856624,3.74762652,8.76707233e-01,-3.34509848,8.11590226e-05,6.43451171,-1.01053092,-1,-0.9061190189258883
1.49389901e+05,2.79999670,-5.25596762e-12,1.69063005,3.74847170,8.71048776e-01,-3.34509848,8.16672738e-05,6.44273332,-9.75986741e-01,-1,-0.9017972263421774
