star_age,star_mass,star_mdot,log_L,log_Teff,log_R,log_surf_z,v_wind_Km_per_s,log_center_T,log_center_Rho,phase,x
2.59170680e+02,4.39999971,-9.62721272e-10,3.21269177,3.66172919,1.80556466,-3.34509849,5.43355079e-05,5.71541572,-3.78871552,-1,-1.0
2.71152471e+02,4.39999970,-9.50734701e-10,3.20934943,3.66190984,1.80353219,-3.34509849,5.42623177e-05,5.71740770,-3.78274554,-1,-0.9999815169233173
2.83647224e+02,4.39999969,-9.38597261e-10,3.20584675,3.66208132,1.80143789,-3.34509849,5.41774413e-05,5.71946059,-3.77659333,-1,-0.9999622425529138
2.96696204e+02,4.39999968,-9.26223875e-10,3.20227328,3.66226790,1.79927800,-3.34509849,5.40986373e-05,5.72157754,-3.77024916,-1,-0.999942113233518
3.06056485e+02,4.39999967,-9.15079518e-10,3.21745516,3.66700205,1.79740063,-3.34509849,6.88286500e-05,5.72313640,-3.76558544,-1,-0.9999276740906975
3.12112967e+02,4.39999966,-9.24893857e-10,3.24880387,3.67566161,1.79575587,-3.34509849,9.84749008e-05,5.72422579,-3.76233566,-1,-0.9999183313788079
3.26464011e+02,4.39999965,-1.00036095e-09,3.24542587,3.67612100,1.79314808,-3.34509848,1.08778921e-04,5.72677834,-3.75468577,-1,-0.999896193499193
3.41459267e+02,4.39999963,-9.87255656e-10,3.24120463,3.67640349,1.79047249,-3.34509847,1.09217446e-04,5.72940325,-3.74681592,-1,-0.9998730618599809
3.57169281e+02,4.39999962,-9.73658073e-10,3.23686338,3.67669455,1.78771974,-3.34509847,1.09637521e-04,5.73210377,-3.73872207,-1,-0.9998488276371131
3.73549844e+02,4.39999960,-9.59018269e-10,3.23240969,3.67699304,1.78489592,-3.34509847,1.09969294e-04,5.73487410,-3.73041883,-1,-0.9998235590272672
3.90652331e+02,4.39999959,-9.43418837e-10,3.22783403,3.67729871,1.78199674,-3.34509847,1.10217367e-04,5.73771841,-3.72189421,-1,-0.9997971767795141
4.08620929e+02,4.39999957,-9.27168095e-10,3.22311506,3.67761251,1.77900965,-3.34509847,1.10413321e-04,5.74064913,-3.71310945,-1,-0.9997694584713984
4.27383288e+02,4.39999955,-9.10494130e-10,3.21826665,3.67793293,1.77594461,-3.34509847,1.10576969e-04,5.74365634,-3.70409670,-1,-0.9997405157098241
4.46967400e+02,4.39999953,-8.93497790e-10,3.21328341,3.67825874,1.77280138,-3.34509847,1.10713127e-04,5.74674021,-3.69485391,-1,-0.9997103053144116
4.67402302e+02,4.39999952,-8.76614854e-10,3.20830834,3.67862635,1.76957862,-3.34509847,1.10972835e-04,5.74990156,-3.68537797,-1,-0.9996787824927674
4.88879464e+02,4.39999950,-8.59705685e-10,3.20308258,3.67897707,1.76626430,-3.34509847,1.11177950e-04,5.75315332,-3.67562897,-1,-0.9996456518838148
5.11269522e+02,4.39999948,-8.42528398e-10,3.19773994,3.67933736,1.76287240,-3.34509847,1.11365422e-04,5.75648105,-3.66565420,-1,-0.9996111130440916
5.34654720e+02,4.39999946,-8.25238982e-10,3.19224106,3.67969914,1.75939941,-3.34509847,1.11530729e-04,5.75988874,-3.65543759,-1,-0.9995750391042377
5.59166999e+02,4.39999944,-8.08077152e-10,3.18659452,3.68006778,1.75583885,-3.34509847,1.11718049e-04,5.76338264,-3.64496301,-1,-0.9995372265324423
5.84701922e+02,4.39999942,-7.90857058e-10,3.18105588,3.68050294,1.75219921,-3.34509847,1.12070204e-04,5.76695301,-3.63425877,-1,-0.999497836432924
6.11509063e+02,4.39999940,-7.73709650e-10,3.17516339,3.68089495,1.74846895,-3.34509847,1.12293553e-04,5.77061359,-3.62328732,-1,-0.999456483813541
6.39429149e+02,4.39999938,-7.56531767e-10,3.16917546,3.68130122,1.74466245,-3.34509847,1.12535370e-04,5.77434882,-3.61209091,-1,-0.9994134143683698
6.68701862e+02,4.39999936,-7.39348139e-10,3.16303224,3.68171276,1.74076774,-3.34509847,1.12764803e-04,5.77817037,-3.60063568,-1,-0.9993682583646396
6.99244359e+02,4.39999933,-7.22122287e-10,3.15676883,3.68213383,1.73679392,-3.34509847,1.12991670e-04,5.78206953,-3.58894678,-1,-0.9993211435957262
7.31163372e+02,4.39999931,-7.04732006e-10,3.15039606,3.68256902,1.73273714,-3.34509847,1.13202270e-04,5.78605018,-3.57701284,-1,-0.9992719054171503
7.64585084e+02,4.39999929,-6.87613784e-10,3.14383669,3.68300001,1.72859547,-3.34509847,1.13411603e-04,5.79011435,-3.56482556,-1,-0.9992203491793754
7.99473346e+02,4.39999926,-6.70713061e-10,3.13715571,3.68343984,1.72437533,-3.34509847,1.13647017e-04,5.79425601,-3.55240671,-1,-0.999166530645746
8.35898812e+02,4.39999924,-6.53850201e-10,3.13035759,3.68388982,1.72007631,-3.34509847,1.13881840e-04,5.79847533,-3.53975394,-1,-0.9991103408256028
8.74068753e+02,4.39999922,-6.37150469e-10,3.12371806,3.68442474,1.71568671,-3.34509847,1.14345664e-04,5.80278282,-3.52683843,-1,-0.9990514599832914
9.13929655e+02,4.39999919,-6.20409447e-10,3.11666560,3.68489488,1.71122019,-3.34509847,1.14573643e-04,5.80716689,-3.51369533,-1,-0.9989899706693558
9.55586317e+02,4.39999917,-6.04118147e-10,3.10951629,3.68537958,1.70667614,-3.34509847,1.14878532e-04,5.81162715,-3.50032226,-1,-0.9989257112211569
9.99109683e+02,4.39999914,-5.87861279e-10,3.10221999,3.68586610,1.70205494,-3.34509847,1.15145500e-04,5.81616309,-3.48672118,-1,-0.9988585722006824
1.04458914e+03,4.39999911,-5.71671374e-10,3.09478923,3.68635748,1.69735682,-3.34509847,1.15383968e-04,5.82077483,-3.47289058,-1,-0.9987884157198007
1.09211795e+03,4.39999909,-5.55771090e-10,3.08728117,3.68686760,1.69258254,-3.34509847,1.15677255e-04,5.82546149,-3.45883414,-1,-0.9987150979128159
1.14179039e+03,4.39999906,-5.39945778e-10,3.07960963,3.68737429,1.68773338,-3.34509847,1.15912905e-04,5.83022228,-3.44455687,-1,-0.9986384733482963
1.19370091e+03,4.39999903,-5.24417211e-10,3.07181095,3.68788596,1.68281071,-3.34509847,1.16160807e-04,5.83505554,-3.43006606,-1,-0.9985583963279409
1.24796903e+03,4.39999901,-5.09069947e-10,3.06403985,3.68844233,1.67781243,-3.34509847,1.16507445e-04,5.83996258,-3.41535185,-1,-0.9984746824805378
1.30468019e+03,4.39999898,-4.93961395e-10,3.05603340,3.68897578,1.67274230,-3.34509847,1.16769019e-04,5.84494044,-3.40042336,-1,-0.9983872000065864
1.36394169e+03,4.39999895,-4.79213832e-10,3.04794058,3.68952294,1.66760156,-3.34509847,1.17076941e-04,5.84998771,-3.38528606,-1,-0.9982957833854122
1.42586203e+03,4.39999892,-4.64687441e-10,3.03968873,3.69006438,1.66239276,-3.34509847,1.17342744e-04,5.85510266,-3.36994572,-1,-0.9982002652452241
1.49055748e+03,4.39999889,-4.50360363e-10,3.03132219,3.69061044,1.65711736,-3.34509847,1.17585903e-04,5.86028350,-3.35440784,-1,-0.9981004662282512
1.55815011e+03,4.39999886,-4.36258368e-10,3.02284856,3.69116251,1.65177641,-3.34509847,1.17816131e-04,5.86552949,-3.33867690,-1,-0.9979961980296589
1.62875967e+03,4.39999883,-4.22346691e-10,3.01427596,3.69172206,1.64637101,-3.34509847,1.18023858e-04,5.87083911,-3.32275468,-1,-0.9978872759234382
1.70254421e+03,4.39999880,-4.08899888e-10,3.00574258,3.69232507,1.64089830,-3.34509847,1.18391587e-04,5.87621490,-3.30663286,-1,-0.9977734561021092
1.77971951e+03,4.39999877,-3.95712478e-10,2.99695329,3.69289468,1.63536444,-3.34509847,1.18632455e-04,5.88165180,-3.29032371,-1,-0.9976544057040581
1.86032628e+03,4.39999874,-3.82765754e-10,2.98812299,3.69348425,1.62977014,-3.34509847,1.18899943e-04,5.88714843,-3.27383816,-1,-0.9975300619301549
1.94448710e+03,4.39999871,-3.70060622e-10,2.97913810,3.69406421,1.62411778,-3.34509847,1.19103284e-04,5.89270250,-3.25718063,-1,-0.9974002356888405
2.03245695e+03,4.39999867,-3.57222872e-10,2.97009598,3.69465999,1.61840516,-3.34509847,1.19189838e-04,5.89831606,-3.24034845,-1,-0.997264533648693
2.12434802e+03,4.39999864,-3.44899757e-10,2.96105349,3.69528685,1.61263019,-3.34509847,1.19416900e-04,5.90399005,-3.22333138,-1,-0.9971227827457378
2.22042452e+03,4.39999861,-3.33021480e-10,2.95186220,3.69590359,1.60680108,-3.34509847,1.19636067e-04,5.90965804,-3.20625632,-1,-0.9969745754103811
2.32078059e+03,4.39999858,-3.21574945e-10,2.94255150,3.69651662,1.60091967,-3.34509847,1.19872957e-04,5.91539815,-3.18899329,-1,-0.996819766422527
2.42562405e+03,4.39999854,-3.10555582e-10,2.93310574,3.69712224,1.59498554,-3.34509847,1.20120248e-04,5.92122173,-3.17151433,-1,-0.996658035199635
2.53513822e+03,4.39999851,-3.00240826e-10,2.92357839,3.69773025,1.58900584,-3.34509847,1.20520658e-04,5.92709947,-3.15388323,-1,-0.9964890989527952
2.64961508e+03,4.39999848,-2.89713952e-10,2.91403538,3.69835827,1.58297831,-3.34509847,1.20763563e-04,5.93302179,-3.13611887,-1,-0.9963125072744909
2.76912271e+03,4.39999844,-2.79439761e-10,2.90441661,3.69899139,1.57690268,-3.34509847,1.20990013e-04,5.93899325,-3.11820754,-1,-0.996128155144708
2.89410117e+03,4.39999841,-2.69487044e-10,2.89468024,3.69961729,1.57078270,-3.34509847,1.21185060e-04,5.94501014,-3.10015874,-1,-0.9959353637281432
3.02449568e+03,4.39999838,-2.59750505e-10,2.88484602,3.70023996,1.56462025,-3.34509847,1.21322713e-04,5.95107013,-3.08197675,-1,-0.9957342175282686
3.16094800e+03,4.39999834,-2.50313989e-10,2.87499866,3.70088186,1.55841277,-3.34509847,1.21499392e-04,5.95717139,-3.06365991,-1,-0.9955237265679356
3.30327613e+03,4.39999831,-2.41176390e-10,2.86508343,3.70152769,1.55216350,-3.34509847,1.21681854e-04,5.96326820,-3.04516538,-1,-0.9953041715998258
3.45220431e+03,4.39999827,-2.32290955e-10,2.85507841,3.70217141,1.54587353,-3.34509847,1.21820745e-04,5.96934575,-3.02647249,-1,-0.9950744354133773
3.60757545e+03,4.39999824,-2.23638169e-10,2.84501786,3.70282066,1.53954476,-3.34509847,1.21939611e-04,5.97540723,-3.00758620,-1,-0.9948347603351767
3.77004032e+03,4.39999820,-2.15331231e-10,2.83483678,3.70345709,1.53318137,-3.34509847,1.22038658e-04,5.98145000,-2.98850934,-1,-0.994584142489275
3.93964792e+03,4.39999817,-2.07242270e-10,2.82458513,3.70409221,1.52678529,-3.34509847,1.22091935e-04,5.98747451,-2.96924685,-1,-0.9943225062884117
4.11693028e+03,4.39999813,-1.99384035e-10,2.81445895,3.70477620,1.52035422,-3.34509848,1.22247148e-04,5.99348430,-2.94978432,-1,-0.9940490310246234
4.30215677e+03,4.39999809,-1.91896546e-10,2.80418332,3.70543859,1.51389164,-3.34509847,1.22393693e-04,5.99948459,-2.93012386,-1,-0.9937633011685153
4.49546293e+03,4.39999806,-1.84627412e-10,2.79381152,3.70608986,1.50740319,-3.34509847,1.22476292e-04,6.00547104,-2.91028136,-1,-0.993465107636469
4.69762090e+03,4.39999802,-1.77548355e-10,2.78338077,3.70673948,1.50088858,-3.34509847,1.22496702e-04,6.01144387,-2.89024378,-1,-0.9931532593275192
4.90873938e+03,4.39999798,-1.70727588e-10,2.77295881,3.70740398,1.49434860,-3.34509847,1.22557156e-04,6.01741010,-2.87001833,-1,-0.9928275885613551
5.12909478e+03,4.39999795,-1.64136811e-10,2.76242982,3.70805178,1.48778849,-3.34509847,1.22553740e-04,6.02336424,-2.84961319,-1,-0.9924876689486979
5.35957585e+03,4.39999791,-1.57736710e-10,2.75188436,3.70870603,1.48120726,-3.34509847,1.22517429e-04,6.02931243,-2.82901459,-1,-0.9921321295063279
5.60031999e+03,4.39999787,-1.51634295e-10,2.74137611,3.70937858,1.47460804,-3.34509847,1.22575774e-04,6.03525066,-2.80822221,-1,-0.9917607582813963
5.85168729e+03,4.39999784,-1.45755306e-10,2.73076164,3.71003140,1.46799517,-3.34509847,1.22570043e-04,6.04118398,-2.78724831,-1,-0.9913729998000943
6.11418386e+03,4.39999780,-1.40088326e-10,2.72013487,3.71068708,1.46137042,-3.34509847,1.22561359e-04,6.04711219,-2.76609730,-1,-0.9909680733385768
6.38860924e+03,4.39999776,-1.34449412e-10,2.70948620,3.71134403,1.45473219,-3.34509847,1.22379004e-04,6.05304013,-2.74474934,-1,-0.9905447455287165
6.67519597e+03,4.39999773,-1.29116364e-10,2.69878910,3.71199362,1.44808446,-3.34509847,1.22252766e-04,6.05896926,-2.72321757,-1,-0.9901026576549712
6.97483045e+03,4.39999769,-1.24069456e-10,2.68823046,3.71268283,1.44142671,-3.34509847,1.22307221e-04,6.06490286,-2.70149892,-1,-0.9896404423592247
7.28769930e+03,4.39999765,-1.19209414e-10,2.67751877,3.71333428,1.43476797,-3.34509847,1.22244633e-04,6.07083679,-2.67961503,-1,-0.9891578117619961
7.61456306e+03,4.39999761,-1.14530620e-10,2.66688463,3.71400619,1.42810708,-3.34509847,1.22226830e-04,6.07677785,-2.65755666,-1,-0.9886535926564471
7.95601105e+03,4.39999757,-1.10101298e-10,2.65627318,3.71468320,1.42144734,-3.34509847,1.22290887e-04,6.08272847,-2.63532521,-1,-0.9881268759592235
8.31281314e+03,4.39999754,-1.05736303e-10,2.64560997,3.71534498,1.41479217,-3.34509847,1.22182604e-04,6.08869155,-2.61293087,-1,-0.9875764740710552
8.68562261e+03,4.39999750,-1.01582604e-10,2.63494549,3.71600343,1.40814303,-3.34509847,1.22105736e-04,6.09466864,-2.59037676,-1,-0.9870013792440742
9.07492873e+03,4.39999746,-9.76094328e-11,2.62430710,3.71666359,1.40150352,-3.34509847,1.22048491e-04,6.10066478,-2.56767204,-1,-0.9864008367317714
9.48203712e+03,4.39999742,-9.38144476e-11,2.61377614,3.71734548,1.39487427,-3.34509847,1.22068720e-04,6.10668503,-2.54481365,-1,-0.9857728324884522
9.90715670e+03,4.39999738,-9.01796529e-11,2.60318476,3.71800353,1.38826248,-3.34509847,1.22032895e-04,6.11272965,-2.52183206,-1,-0.9851170442347192
1.03513421e+04,4.39999734,-8.66842809e-11,2.59260698,3.71865444,1.38167177,-3.34509847,1.21962406e-04,6.11880154,-2.49873516,-1,-0.9844318451013375
1.08156170e+04,4.39999730,-8.33282447e-11,2.58208210,3.71930629,1.37510562,-3.34509847,1.21886091e-04,6.12490533,-2.47553531,-1,-0.9837156559624534
1.13006476e+04,4.39999726,-8.01820522e-11,2.57170926,3.71998273,1.36856632,-3.34509847,1.21982488e-04,6.13104315,-2.45224618,-1,-0.9829674491398436
1.18076502e+04,4.39999722,-7.72076455e-11,2.56133905,3.72064203,1.36206262,-3.34509847,1.22097352e-04,6.13723057,-2.42891963,-1,-0.9821853483725912
1.23375472e+04,4.39999718,-7.43384661e-11,2.55102568,3.72129445,1.35560108,-3.34509847,1.22163265e-04,6.14346244,-2.40556282,-1,-0.9813679307690824
1.28915002e+04,4.39999714,-7.15445806e-11,2.54078797,3.72194376,1.34918362,-3.34509847,1.22143565e-04,6.14975996,-2.38216262,-1,-0.9805134044484644
1.34703346e+04,4.39999710,-6.88620029e-11,2.53060832,3.72258274,1.34281584,-3.34509847,1.22083787e-04,6.15609169,-2.35885002,-1,-0.9796204961510473
1.40753785e+04,4.39999706,-6.63093667e-11,2.52062823,3.72324477,1.33650172,-3.34509847,1.22115880e-04,6.16248090,-2.33562237,-1,-0.9786871571535523
1.47076559e+04,4.39999702,-6.38859689e-11,2.51071861,3.72389389,1.33024867,-3.34509847,1.22146410e-04,6.16891853,-2.31251909,-1,-0.9777118078364948
1.53693065e+04,4.39999698,-6.15659533e-11,2.50090957,3.72453157,1.32406880,-3.34509847,1.22138588e-04,6.17540883,-2.28954669,-1,-0.976691147504747
1.60609297e+04,4.39999694,-5.93678929e-11,2.49122600,3.72516157,1.31796701,-3.34509847,1.22151264e-04,6.18190291,-2.26677363,-1,-0.9756242515255753
1.67838158e+04,4.39999690,-5.72789493e-11,2.48167974,3.72578239,1.31195225,-3.34509847,1.22165458e-04,6.18837527,-2.24419464,-1,-0.9745091294858736
1.75395899e+04,4.39999685,-5.52893795e-11,2.47230152,3.72639869,1.30603053,-3.34509847,1.22180697e-04,6.19485383,-2.22160073,-1,-0.9733432745110087
1.83307809e+04,4.39999681,-5.34059227e-11,2.46316810,3.72702716,1.30020688,-3.34509847,1.22262597e-04,6.20113133,-2.19926926,-1,-0.9721227855270406
1.91574494e+04,4.39999677,-5.16234295e-11,2.45415736,3.72763558,1.29448467,-3.34509847,1.22333198e-04,6.20723515,-2.17692142,-1,-0.9708475690525818
2.00220377e+04,4.39999673,-4.99302100e-11,2.44530936,3.72823222,1.28886739,-3.34509848,1.22394076e-04,6.21309055,-2.15446624,-1,-0.9695138576026062
2.09262711e+04,4.39999668,-4.83213506e-11,2.43663792,3.72882125,1.28335361,-3.34509848,1.22458626e-04,6.21867185,-2.13173529,-1,-0.9681189897342457
2.18709481e+04,4.39999664,-4.67875379e-11,2.42814212,3.72940464,1.27793894,-3.34509848,1.22522849e-04,6.22399060,-2.10860134,-1,-0.9666617336836738
2.28598717e+04,4.39999659,-4.53415781e-11,2.41992535,3.73000898,1.27262187,-3.34509848,1.22698856e-04,6.22898667,-2.08516903,-1,-0.9651362229539182
2.38921799e+04,4.39999655,-4.39659979e-11,2.41181720,3.73059322,1.26739932,-3.34509848,1.22852107e-04,6.23397897,-2.06105549,-1,-0.9635437872637246
2.49727845e+04,4.39999650,-4.26582285e-11,2.40391388,3.73117746,1.26227917,-3.34509848,1.23027447e-04,6.23896989,-2.03636446,-1,-0.9618768496843977
2.61009240e+04,4.39999645,-4.14131161e-11,2.39622190,3.73176389,1.25726032,-3.34509848,1.23234668e-04,6.24405089,-2.01113452,-1,-0.9601365849036693
2.72818613e+04,4.39999640,-4.02399073e-11,2.38878113,3.73235453,1.25235866,-3.34509848,1.23502747e-04,6.24929692,-1.98537334,-1,-0.9583148743869836
2.85151856e+04,4.39999636,-3.91363321e-11,2.38173956,3.73298587,1.24757520,-3.34509848,1.23940190e-04,6.25474716,-1.95910348,-1,-0.9564123518332511
2.98061310e+04,4.39999631,-3.81033897e-11,2.37490203,3.73359590,1.24293637,-3.34509848,1.24381939e-04,6.26044301,-1.93229263,-1,-0.954420943134714
3.11541181e+04,4.39999626,-3.71351114e-11,2.36842157,3.73421793,1.23845207,-3.34509848,1.24910305e-04,6.26638161,-1.90497946,-1,-0.9523415420721626
3.25657233e+04,4.39999620,-3.62382043e-11,2.36235452,3.73485050,1.23415340,-3.34509848,1.25539424e-04,6.27259465,-1.87710646,-1,-0.9501640039096809
3.40392973e+04,4.39999615,-3.54119272e-11,2.35672104,3.73549403,1.23004960,-3.34509848,1.26283652e-04,6.27911445,-1.84858688,-1,-0.9478908728527531
3.55827961e+04,4.39999610,-3.46616819e-11,2.35163923,3.73615741,1.22618195,-3.34509848,1.27175926e-04,6.28592710,-1.81940529,-1,-0.945509875998431
3.71946843e+04,4.39999604,-3.39946518e-11,2.34715868,3.73684684,1.22256280,-3.34509848,1.28277948e-04,6.29297394,-1.78971068,-1,-0.943023381850383
3.88819517e+04,4.39999599,-3.34100583e-11,2.34332332,3.73754811,1.21924259,-3.34509848,1.29542398e-04,6.30030936,-1.75941344,-1,-0.9404206079630303
4.06446474e+04,4.39999593,-3.29113160e-11,2.34023765,3.73827298,1.21625001,-3.34509848,1.31021070e-04,6.30794636,-1.72847541,-1,-0.9377014785948525
4.24881952e+04,4.39999587,-3.25080286e-11,2.33802312,3.73902168,1.21364535,-3.34509848,1.32744246e-04,6.31590761,-1.69684564,-1,-0.934857627007412
4.44144869e+04,4.39999580,-3.22164497e-11,2.33689004,3.73982133,1.21147951,-3.34509848,1.34853468e-04,6.32420323,-1.66449003,-1,-0.931886134915415
4.64261211e+04,4.39999574,-3.20427408e-11,2.33686789,3.74064500,1.20982110,-3.34509848,1.37291237e-04,6.33284274,-1.63138355,-1,-0.9287829937259002
4.85274632e+04,4.39999567,-3.20077134e-11,2.33823774,3.74151009,1.20877584,-3.34509848,1.40168259e-04,6.34185090,-1.59746785,-1,-0.9255414693852563
5.07172660e+04,4.39999560,-3.21346030e-11,2.34118330,3.74242503,1.20841875,-3.34509848,1.43596972e-04,6.35123387,-1.56274016,-1,-0.9221634858206524
5.29972123e+04,4.39999553,-3.24620184e-11,2.34602575,3.74339883,1.20889237,-3.34509848,1.47729235e-04,6.36102026,-1.52717328,-1,-0.9186464471495998
5.53662925e+04,4.39999545,-3.30384414e-11,2.35309256,3.74443919,1.21034504,-3.34509848,1.52756047e-04,6.37123034,-1.49076162,-1,-0.9149919107781839
5.78188108e+04,4.39999537,-3.39140971e-11,2.36271448,3.74555574,1.21292291,-3.34509848,1.58872016e-04,6.38185908,-1.45352792,-1,-0.9112086630312679
6.03454325e+04,4.39999528,-3.51571545e-11,2.37522584,3.74677086,1.21674835,-3.34509848,1.66401936e-04,6.39290922,-1.41556190,-1,-0.9073111035904947
6.29357165e+04,4.39999519,-3.68271356e-11,2.39078884,3.74810740,1.22185677,-3.34509848,1.75676794e-04,6.40437992,-1.37693568,-1,-0.9033153388669971
6.55808733e+04,4.39999509,-3.89529191e-11,2.40917954,3.74959690,1.22807313,-3.34509848,1.87048979e-04,6.41625941,-1.33768956,-1,-0.89923492751845
6.82859962e+04,4.39999498,-4.14868631e-11,2.42956809,3.75128751,1.23488618,-3.34509849,2.00853256e-04,6.42861105,-1.29767517,-1,-0.8950620126347749
7.10798041e+04,4.39999486,-4.42384335e-11,2.45033364,3.75321721,1.24140955,-3.34509849,2.17133189e-04,6.44156262,-1.25644752,-1,-0.8907522925225984
7.40042850e+04,4.39999472,-4.69046260e-11,2.46963254,3.75542805,1.24663733,-3.34509849,2.35760409e-04,6.45528355,-1.21343322,-1,-0.8862409966126662
7.70816349e+04,4.39999457,-4.92217095e-11,2.48636097,3.75796724,1.24992315,-3.34509849,2.56740916e-04,6.46980616,-1.16840560,-1,-0.8814938854185737
8.03065667e+04,4.39999441,-5.10943130e-11,2.50053743,3.76088989,1.25116610,-3.34509850,2.80611729e-04,6.48502078,-1.12158206,-1,-0.8765191148057274
8.36661366e+04,4.39999424,-5.25288293e-11,2.51261102,3.76424346,1.25049574,-3.34509851,3.08295770e-04,6.50080980,-1.07329223,-1,-0.8713366518431548
8.71453254e+04,4.39999405,-5.35613122e-11,2.52304723,3.76808709,1.24802659,-3.34509853,3.41133793e-04,6.51704189,-1.02386908,-1,-0.865969665106014
