star_age,star_mass,star_mdot,log_Teff,log_R,log_surf_z,surface_h1,surface_he3,log_center_T,log_center_Rho,phase,x
1.72659560e+02,7.59999940,-2.46649799e-09,3.65919773,2.02432283,-3.34509848,7.49859684e-01,4.14389329e-05,5.71672784,-4.21048001,-1,-1.0
1.80117197e+02,7.59999938,-2.43768907e-09,3.65935134,2.02243143,-3.34509848,7.49859684e-01,4.14389329e-05,5.71861085,-4.20482982,-1,-0.9999654053972064
1.87871881e+02,7.59999936,-2.40890037e-09,3.65955122,2.02048479,-3.34509848,7.49859684e-01,4.14389329e-05,5.72054796,-4.19901806,-1,-0.9999294328481577
1.95935599e+02,7.59999934,-2.37985012e-09,3.65974582,2.01848083,-3.34509848,7.49859684e-01,4.14389329e-05,5.72254219,-4.19303510,-1,-0.9998920267473713
2.04337463e+02,7.59999932,-2.35006812e-09,3.65992142,2.01641775,-3.34509848,7.49859684e-01,4.14389329e-05,5.72459544,-4.18687465,-1,-0.9998530520496479
2.13100098e+02,7.59999930,-2.31962599e-09,3.66010240,2.01429620,-3.34509848,7.49859684e-01,4.14389329e-05,5.72670657,-4.18054045,-1,-0.9998124038017847
2.21320531e+02,7.59999928,-2.29078271e-09,3.66161386,2.01222250,-3.34509848,7.49859684e-01,4.14389329e-05,5.72868026,-4.17462362,-1,-0.9997742707290129
2.24819743e+02,7.59999927,-2.26763184e-09,3.67048545,2.01069687,-3.34509848,7.49859684e-01,4.14389329e-05,5.72960827,-4.17186487,-1,-0.9997580385298283
2.32717556e+02,7.59999925,-2.71051229e-09,3.67351238,2.00842838,-3.34509848,7.49859684e-01,4.14389329e-05,5.73168589,-4.16564429,-1,-0.9997214020317428
2.42705926e+02,7.59999923,-2.63159598e-09,3.67384038,2.00582507,-3.34509847,7.49859684e-01,4.14389330e-05,5.73427650,-4.15787181,-1,-0.99967506782525
2.53090816e+02,7.59999920,-2.54073489e-09,3.67412636,2.00316242,-3.34509847,7.49859684e-01,4.14389330e-05,5.73692726,-4.14991731,-1,-0.9996268942355988
2.63965804e+02,7.59999917,-2.44742390e-09,3.67442470,2.00042566,-3.34509847,7.49859684e-01,4.14389330e-05,5.73965143,-4.14174438,-1,-0.9995764471717038
2.75286885e+02,7.59999915,-2.36844693e-09,3.67473018,1.99762249,-3.34509847,7.49859684e-01,4.14389330e-05,5.74244188,-4.13337324,-1,-0.9995239307646449
2.87076794e+02,7.59999912,-2.32579505e-09,3.67505186,1.99475044,-3.34509847,7.49859684e-01,4.14389330e-05,5.74530030,-4.12479715,-1,-0.9994692395509497
2.99353007e+02,7.59999909,-2.28629952e-09,3.67537103,1.99180960,-3.34509847,7.49859684e-01,4.14389330e-05,5.74822735,-4.11601429,-1,-0.999412292462677
3.12145573e+02,7.59999906,-2.24593016e-09,3.67569721,1.98879780,-3.34509847,7.49859684e-01,4.14389330e-05,5.75122509,-4.10701964,-1,-0.999352950108057
3.25534620e+02,7.59999903,-2.20558369e-09,3.67603601,1.98570682,-3.34509847,7.49859684e-01,4.14389330e-05,5.75430110,-4.09779125,-1,-0.9992908407880741
3.39466671e+02,7.59999900,-2.16454814e-09,3.67638402,1.98254599,-3.34509847,7.49859684e-01,4.14389330e-05,5.75744667,-4.08835367,-1,-0.9992262125726694
3.53954898e+02,7.59999897,-2.12272285e-09,3.67672760,1.97931661,-3.34509847,7.49859684e-01,4.14389330e-05,5.76066056,-4.07871008,-1,-0.9991590043593642
3.69109951e+02,7.59999894,-2.08219794e-09,3.67709073,1.97600825,-3.34509847,7.49859684e-01,4.14389330e-05,5.76395241,-4.06883363,-1,-0.9990887028632133
3.84891697e+02,7.59999891,-2.04143682e-09,3.67748261,1.97262709,-3.34509847,7.49859684e-01,4.14389330e-05,5.76731610,-4.05874136,-1,-0.9990154942538025
4.01309666e+02,7.59999887,-2.00019677e-09,3.67785732,1.96917676,-3.34509847,7.49859684e-01,4.14389330e-05,5.77074900,-4.04844230,-1,-0.9989393343232196
4.18482914e+02,7.59999884,-1.95948740e-09,3.67824098,1.96564752,-3.34509847,7.49859684e-01,4.14389330e-05,5.77425986,-4.03790840,-1,-0.9988596707926353
4.36311591e+02,7.59999881,-1.91815204e-09,3.67862630,1.96205248,-3.34509847,7.49859684e-01,4.14389330e-05,5.77783560,-4.02718015,-1,-0.9987769668477865
4.54975035e+02,7.59999877,-1.87686794e-09,3.67904493,1.95837575,-3.34509847,7.49859684e-01,4.14389330e-05,5.78149140,-4.01621190,-1,-0.9986903905727624
4.74347922e+02,7.59999873,-1.83640258e-09,3.67947688,1.95463208,-3.34509847,7.49859684e-01,4.14389330e-05,5.78521311,-4.00504595,-1,-0.9986005233224886
4.94623410e+02,7.59999870,-1.79547829e-09,3.67990404,1.95080885,-3.34509847,7.49859684e-01,4.14389330e-05,5.78901358,-3.99364257,-1,-0.9985064690726227
5.15690757e+02,7.59999866,-1.75472159e-09,3.68033443,1.94691851,-3.34509847,7.49859684e-01,4.14389330e-05,5.79286885,-3.98202676,-1,-0.9984087415348812
5.37676260e+02,7.59999862,-1.71426502e-09,3.68076240,1.94295465,-3.34509847,7.49859684e-01,4.14389330e-05,5.79677115,-3.97015808,-1,-0.9983067548407712
5.60597317e+02,7.59999858,-1.67423974e-09,3.68119878,1.93891987,-3.34509847,7.49859684e-01,4.14389330e-05,5.80071718,-3.95804211,-1,-0.998200428284179
5.84438427e+02,7.59999855,-1.63421513e-09,3.68164481,1.93481806,-3.34509847,7.49859684e-01,4.14389330e-05,5.80470486,-3.94569108,-1,-0.998089833771385
6.09340544e+02,7.59999851,-1.59437039e-09,3.68210129,1.93064247,-3.34509847,7.49859684e-01,4.14389330e-05,5.80873906,-3.93307487,-1,-0.9979743174427765
6.35283291e+02,7.59999847,-1.55481876e-09,3.68257314,1.92639836,-3.34509849,7.49859685e-01,4.14389329e-05,5.81281628,-3.92020970,-1,-0.9978539738234987
6.62291069e+02,7.59999842,-1.51620185e-09,3.68305611,1.92208738,-3.34509847,7.49859684e-01,4.14389330e-05,5.81693595,-3.90709706,-1,-0.9977286897218124
6.90429136e+02,7.59999838,-1.47763423e-09,3.68354599,1.91770989,-3.34509847,7.49859684e-01,4.14389330e-05,5.82109720,-3.89373433,-1,-0.9975981624178896
7.19799342e+02,7.59999834,-1.43917283e-09,3.68402733,1.91326444,-3.34509847,7.49859684e-01,4.14389330e-05,5.82530065,-3.88010922,-1,-0.9974619194483623
7.50392036e+02,7.59999830,-1.40166870e-09,3.68451298,1.90875591,-3.34509847,7.49859684e-01,4.14389330e-05,5.82954239,-3.86623562,-1,-0.9973200055824397
7.82255688e+02,7.59999825,-1.36440065e-09,3.68500316,1.90418609,-3.34509847,7.49859684e-01,4.14389330e-05,5.83382041,-3.85211546,-1,-0.9971721959767303
8.15450520e+02,7.59999821,-1.32749017e-09,3.68551381,1.89955464,-3.34509847,7.49859684e-01,4.14389330e-05,5.83813597,-3.83774142,-1,-0.9970182112724815
8.50037684e+02,7.59999816,-1.29091423e-09,3.68602650,1.89486297,-3.34509847,7.49859684e-01,4.14389330e-05,5.84248897,-3.82311396,-1,-0.996857767796842
8.86092899e+02,7.59999812,-1.25496462e-09,3.68658118,1.89010978,-3.34509848,7.49859684e-01,4.14389330e-05,5.84688029,-3.80822574,-1,-0.9966905143033341
9.23652129e+02,7.59999807,-1.22044967e-09,3.68710025,1.88530169,-3.34509847,7.49859684e-01,4.14389330e-05,5.85130637,-3.79308777,-1,-0.996516283961594
9.62788450e+02,7.59999802,-1.18614165e-09,3.68761645,1.88044007,-3.34509847,7.49859684e-01,4.14389330e-05,5.85576746,-3.77769570,-1,-0.9963347377855333
1.00358249e+03,7.59999798,-1.15212196e-09,3.68814458,1.87552553,-3.34509847,7.49859684e-01,4.14389330e-05,5.86026230,-3.76204855,-1,-0.9961455017567287
1.04608303e+03,7.59999793,-1.11851213e-09,3.68870363,1.87055713,-3.34509847,7.49859684e-01,4.14389330e-05,5.86479485,-3.74613977,-1,-0.9959483495891166
1.09035497e+03,7.59999788,-1.08603427e-09,3.68924147,1.86554172,-3.34509847,7.49859684e-01,4.14389331e-05,5.86935981,-3.72998054,-1,-0.9957429802235651
1.13649801e+03,7.59999783,-1.05409752e-09,3.68978589,1.86047974,-3.34509847,7.49859684e-01,4.14389331e-05,5.87395737,-3.71357023,-1,-0.99552893117016
1.18458941e+03,7.59999778,-1.02259724e-09,3.69035798,1.85537109,-3.34509847,7.49859684e-01,4.14389331e-05,5.87858950,-3.69690136,-1,-0.9953058440340082
1.23469168e+03,7.59999773,-9.91990389e-10,3.69091128,1.85022092,-3.34509847,7.49859684e-01,4.14389331e-05,5.88325362,-3.67998410,-1,-0.9950734288427475
1.28688501e+03,7.59999768,-9.62021698e-10,3.69146387,1.84503183,-3.34509847,7.49859684e-01,4.14389331e-05,5.88794963,-3.66281927,-1,-0.9948313136097553
1.34126821e+03,7.59999763,-9.32460879e-10,3.69202846,1.83980403,-3.34509847,7.49859684e-01,4.14389331e-05,5.89268009,-3.64539814,-1,-0.9945790399736631
1.39792726e+03,7.59999758,-9.04090286e-10,3.69261631,1.83454073,-3.34509847,7.49859684e-01,4.14389331e-05,5.89744491,-3.62772691,-1,-0.9943162090891063
1.45694395e+03,7.59999753,-8.76412115e-10,3.69321008,1.82924305,-3.34509847,7.49859684e-01,4.14389332e-05,5.90224584,-3.60980069,-1,-0.9940424415473577
1.51840421e+03,7.59999747,-8.49181724e-10,3.69379043,1.82391594,-3.34509847,7.49859684e-01,4.14389332e-05,5.90708046,-3.59162515,-1,-0.9937573387349934
1.58251728e+03,7.59999742,-8.22688796e-10,3.69436935,1.81855982,-3.34509847,7.49859684e-01,4.14389332e-05,5.91194901,-3.57318517,-1,-0.993459930026239
1.64930801e+03,7.59999737,-7.96933278e-10,3.69497193,1.81317560,-3.34509847,7.49859684e-01,4.14389332e-05,5.91685150,-3.55447403,-1,-0.993150100146527
1.71885514e+03,7.59999731,-7.72028154e-10,3.69555922,1.80777288,-3.34509847,7.49859684e-01,4.14389333e-05,5.92178993,-3.53554636,-1,-0.9928274838355178
1.79130147e+03,7.59999726,-7.47779365e-10,3.69618046,1.80234898,-3.34509847,7.49859684e-01,4.14389333e-05,5.92676408,-3.51636681,-1,-0.9924914186703448
1.86686199e+03,7.59999720,-7.24063656e-10,3.69677703,1.79690424,-3.34509847,7.49859684e-01,4.14389333e-05,5.93164399,-3.49712225,-1,-0.992140907352044
1.94555893e+03,7.59999715,-7.01297171e-10,3.69737148,1.79144893,-3.34509847,7.49859684e-01,4.14389334e-05,5.93667126,-3.47745766,-1,-0.9917758467597447
2.02751583e+03,7.59999709,-6.79029401e-10,3.69798682,1.78598244,-3.34509847,7.49859684e-01,4.14389334e-05,5.94176502,-3.45753507,-1,-0.9913956638141689
2.11290744e+03,7.59999704,-6.57457960e-10,3.69858973,1.78051021,-3.34509847,7.49859684e-01,4.14389334e-05,5.94690247,-3.43736003,-1,-0.9909995478822916
2.20195099e+03,7.59999698,-6.36538752e-10,3.69919236,1.77503377,-3.34509847,7.49859684e-01,4.14389335e-05,5.95207730,-3.41691988,-1,-0.9905864912742021
2.29468313e+03,7.59999692,-6.16304653e-10,3.69982349,1.76955481,-3.34509847,7.49859684e-01,4.14389335e-05,5.95729332,-3.39621647,-1,-0.9901563239773087
2.39128257e+03,7.59999686,-5.96791765e-10,3.70046161,1.76407629,-3.34509847,7.49859684e-01,4.14389336e-05,5.96255401,-3.37525017,-1,-0.9897082169888772
2.49202276e+03,7.59999680,-5.77843913e-10,3.70107356,1.75860599,-3.34509847,7.49859684e-01,4.14389336e-05,5.96786333,-3.35402864,-1,-0.9892409018247839
2.59688032e+03,7.59999674,-5.59728891e-10,3.70168790,1.75314561,-3.34509847,7.49859684e-01,4.14389337e-05,5.97321662,-3.33253920,-1,-0.9887544869405374
2.70622367e+03,7.59999668,-5.42092608e-10,3.70231171,1.74770001,-3.34509847,7.49859684e-01,4.14389337e-05,5.97862230,-3.31079400,-1,-0.9882472633036973
2.82018790e+03,7.59999662,-5.25040218e-10,3.70295948,1.74227071,-3.34509847,7.49859684e-01,4.14389338e-05,5.98408268,-3.28878789,-1,-0.9877186042566654
2.93882272e+03,7.59999656,-5.08806624e-10,3.70360119,1.73686180,-3.34509847,7.49859684e-01,4.14389338e-05,5.98959559,-3.26651616,-1,-0.9871682792039186
3.06261339e+03,7.59999650,-4.92937553e-10,3.70422833,1.73148346,-3.34509847,7.49859684e-01,4.14389339e-05,5.99516653,-3.24397549,-1,-0.9865940371138027
3.19146821e+03,7.59999644,-4.77004560e-10,3.70486753,1.72613027,-3.34509847,7.49859684e-01,4.14389340e-05,6.00079907,-3.22114908,-1,-0.9859963033657076
3.32580186e+03,7.59999638,-4.62093223e-10,3.70550629,1.72081155,-3.34509847,7.49859684e-01,4.14389340e-05,6.00649622,-3.19802781,-1,-0.9853731543355837
3.46576871e+03,7.59999631,-4.48806900e-10,3.70613699,1.71553922,-3.34509847,7.49859684e-01,4.14389341e-05,6.01225582,-3.17463602,-1,-0.984723873929468
3.61182667e+03,7.59999625,-4.35822542e-10,3.70678158,1.71032294,-3.34509847,7.49859684e-01,4.14389342e-05,6.01808080,-3.15096790,-1,-0.984046337987313
3.76383132e+03,7.59999618,-4.23005662e-10,3.70743360,1.70515807,-3.34509847,7.49859684e-01,4.14389342e-05,6.02397441,-3.12700578,-1,-0.9833412164468662
3.92242648e+03,7.59999612,-4.10772549e-10,3.70807260,1.70005898,-3.34509847,7.49859684e-01,4.14389343e-05,6.02994600,-3.10273153,-1,-0.9826055227458736
4.08760854e+03,7.59999605,-3.98981874e-10,3.70870926,1.69502995,-3.34509847,7.49859684e-01,4.14389343e-05,6.03599901,-3.07815829,-1,-0.9818392736304594
4.25981556e+03,7.59999598,-3.87771576e-10,3.70934436,1.69008386,-3.34509847,7.49859684e-01,4.14389344e-05,6.04213580,-3.05329396,-1,-0.9810404370210652
4.43940385e+03,7.59999592,-3.77120703e-10,3.71000739,1.68522567,-3.34509847,7.49859684e-01,4.14389345e-05,6.04836368,-3.02810684,-1,-0.9802073600613079
4.62641993e+03,7.59999585,-3.66977087e-10,3.71064501,1.68046594,-3.34509847,7.49859684e-01,4.14389345e-05,6.05468439,-3.00260440,-1,-0.9793398269534859
4.82164674e+03,7.59999578,-3.57388918e-10,3.71129878,1.67582008,-3.34509847,7.49859684e-01,4.14389346e-05,6.06111317,-2.97675183,-1,-0.9784342057833197
5.02489779e+03,7.59999571,-3.48351973e-10,3.71195027,1.67129528,-3.34509847,7.49859684e-01,4.14389346e-05,6.06764678,-2.95056511,-1,-0.9774913616435292
5.23709028e+03,7.59999563,-3.39835664e-10,3.71259897,1.66691603,-3.34509847,7.49859684e-01,4.14389347e-05,6.07430098,-2.92401668,-1,-0.9765070398124536
5.45809053e+03,7.59999556,-3.31909693e-10,3.71324850,1.66269060,-3.34509847,7.49859684e-01,4.14389347e-05,6.08107796,-2.89711266,-1,-0.9754818604069609
5.68871173e+03,7.59999548,-3.24571259e-10,3.71392347,1.65864170,-3.34509847,7.49859684e-01,4.14389347e-05,6.08799338,-2.86981441,-1,-0.9744120511886004
5.92906341e+03,7.59999541,-3.17805461e-10,3.71458160,1.65478944,-3.34509847,7.49859684e-01,4.14389348e-05,6.09505220,-2.84213078,-1,-0.9732971040679003
6.17970872e+03,7.59999533,-3.11632692e-10,3.71524339,1.65116193,-3.34509847,7.49859684e-01,4.14389348e-05,6.10226952,-2.81404821,-1,-0.9721344066958597
6.44114344e+03,7.59999525,-3.06089599e-10,3.71590617,1.64778936,-3.34509847,7.49859684e-01,4.14389348e-05,6.10965848,-2.78555092,-1,-0.9709216592404848
6.71355171e+03,7.59999517,-3.01229310e-10,3.71657535,1.64470542,-3.34509847,7.49859684e-01,4.14389348e-05,6.11722944,-2.75663467,-1,-0.9696580075102725
6.99791698e+03,7.59999508,-2.97130061e-10,3.71726539,1.64195857,-3.34509847,7.49859684e-01,4.14389348e-05,6.12500667,-2.72726475,-1,-0.968338889462029
7.29397063e+03,7.59999499,-2.93804142e-10,3.71795666,1.63957648,-3.34509847,7.49859684e-01,4.14389348e-05,6.13299677,-2.69745725,-1,-0.9669655511743985
7.60304648e+03,7.59999490,-2.91408981e-10,3.71864471,1.63764833,-3.34509847,7.49859684e-01,4.14389349e-05,6.14123295,-2.66718323,-1,-0.9655318053023685
7.92476483e+03,7.59999481,-2.89945629e-10,3.71934176,1.63621342,-3.34509847,7.49859684e-01,4.14389349e-05,6.14971924,-2.63646986,-1,-0.9640394132042192
8.26000011e+03,7.59999471,-2.89630274e-10,3.72004471,1.63537206,-3.34509847,7.49859684e-01,4.14389349e-05,6.15848976,-2.60530124,-1,-0.9624843185604324
8.60869336e+03,7.59999461,-2.90641524e-10,3.72076378,1.63520084,-3.34509847,7.49859684e-01,4.14389349e-05,6.16757337,-2.57367773,-1,-0.9608667948755756
8.97129989e+03,7.59999451,-2.93294043e-10,3.72149561,1.63583490,-3.34509847,7.49859684e-01,4.14389349e-05,6.17697459,-2.54168886,-1,-0.9591847300505217
9.34733741e+03,7.59999439,-2.97874224e-10,3.72224873,1.63737105,-3.34509848,7.49859684e-01,4.14389349e-05,6.18672765,-2.50935719,-1,-0.9574403613396425
9.73645873e+03,7.59999428,-3.04832859e-10,3.72302931,1.63995924,-3.34509848,7.49859684e-01,4.14389349e-05,6.19684806,-2.47678877,-1,-0.9556352992933231
1.01377050e+04,7.59999415,-3.14620145e-10,3.72384703,1.64370322,-3.34509848,7.49859684e-01,4.14389348e-05,6.20731705,-2.44419432,-1,-0.953773991839894
1.05497687e+04,7.59999402,-3.27758483e-10,3.72472029,1.64868143,-3.34509848,7.49859685e-01,4.14389348e-05,6.21813929,-2.41176331,-1,-0.9518625043235176
1.09712457e+04,7.59999388,-3.44605627e-10,3.72567352,1.65481705,-3.34509848,7.49859685e-01,4.14389348e-05,6.22929153,-2.37958156,-1,-0.9499073502443309
1.14018212e+04,7.59999372,-3.65185645e-10,3.72673977,1.66184948,-3.34509848,7.49859685e-01,4.14389348e-05,6.24068909,-2.34770849,-1,-0.9479099899014821
1.18436769e+04,7.59999355,-3.88789317e-10,3.72796525,1.66920227,-3.34509848,7.49859685e-01,4.14389348e-05,6.25236752,-2.31574067,-1,-0.9458603027909948
1.23028702e+04,7.59999337,-4.13498847e-10,3.72939375,1.67599015,-3.34509848,7.49859685e-01,4.14389348e-05,6.26406887,-2.28348465,-1,-0.9437301897513029
1.27861861e+04,7.59999316,-4.36431656e-10,3.73108956,1.68118324,-3.34509848,7.49859685e-01,4.14389348e-05,6.27584501,-2.25005484,-1,-0.9414881764186162
1.32973927e+04,7.59999293,-4.54830626e-10,3.73308046,1.68410565,-3.34509848,7.49859685e-01,4.14389348e-05,6.28738148,-2.21518006,-1,-0.9391167832719032
1.38350411e+04,7.59999268,-4.67603020e-10,3.73537671,1.68469905,-3.34509848,7.49859685e-01,4.14389348e-05,6.29889070,-2.17840195,-1,-0.9366227314910747
1.43961975e+04,7.59999242,-4.75322294e-10,3.73798769,1.68331644,-3.34509848,7.49859686e-01,4.14389347e-05,6.31048919,-2.14000108,-1,-0.9340196304333142
1.49786130e+04,7.59999214,-4.79033816e-10,3.74092626,1.68035018,-3.34509848,7.49859686e-01,4.14389347e-05,6.32234935,-2.10038810,-1,-0.9313179123310059
1.55795372e+04,7.59999185,-4.79927524e-10,3.74429207,1.67601784,-3.34509848,7.49859687e-01,4.14389346e-05,6.33456530,-2.05991222,-1,-0.9285303357825537
1.61942077e+04,7.59999156,-4.78612075e-10,3.74829753,1.67019905,-3.34509848,7.49859688e-01,4.14389344e-05,6.34706633,-2.01903061,-1,-0.9256789926833318
1.68172394e+04,7.59999126,-4.75786517e-10,3.75306054,1.66296019,-3.34509849,7.49859690e-01,4.14389342e-05,6.35977299,-1.97799757,-1,-0.9227888635191838
1.74452256e+04,7.59999096,-4.72591800e-10,3.75852089,1.65471391,-3.34509850,7.49859695e-01,4.14389337e-05,6.37260569,-1.93694002,-1,-0.9198757513431861
1.80735133e+04,7.59999067,-4.69601410e-10,3.76468130,1.64558786,-3.34509854,7.49859703e-01,4.14389327e-05,6.38538691,-1.89642773,-1,-0.9169612405642875
1.86925243e+04,7.59999038,-4.66512297e-10,3.77165571,1.63531340,-3.34509861,7.49859716e-01,4.14389312e-05,6.39799684,-1.85691205,-1,-0.9140897626859894
1.93036078e+04,7.59999009,-4.63281418e-10,3.77924875,1.62418920,-3.34509869,7.49859733e-01,4.14389292e-05,6.41046646,-1.81821774,-1,-0.9112550590182953
1.99156705e+04,7.59998981,-4.60302432e-10,3.78717552,1.61268887,-3.34509879,7.49859754e-01,4.14389269e-05,6.42296472,-1.77976056,-1,-0.9084158130223737
2.05322799e+04,7.59998953,-4.57357385e-10,3.79534371,1.60086064,-3.34509892,7.49859781e-01,4.14389238e-05,6.43555835,-1.74132506,-1,-0.905555475723601
2.11557806e+04,7.59998924,-4.54128787e-10,3.80370424,1.58866833,-3.34509991,7.49860067e-01,4.14388940e-05,6.44827921,-1.70277751,-1,-0.9026631709549403
2.17879510e+04,7.59998896,-4.50368669e-10,3.81222560,1.57606771,-3.34510209,7.49860490e-01,4.14388501e-05,6.46114084,-1.66397991,-1,-0.8997306490467434
2.24309838e+04,7.59998867,-4.45812901e-10,3.82087757,1.56301901,-3.34510626,7.49861093e-01,4.14387876e-05,6.47416877,-1.62488575,-1,-0.8967477384680621
2.30864010e+04,7.59998838,-4.40359518e-10,3.82963844,1.54950771,-3.34511201,7.49861832e-01,4.14387112e-05,6.48736934,-1.58542151,-1,-0.8937073789415657
2.37558672e+04,7.59998809,-4.33958857e-10,3.83848624,1.53553553,-3.34511902,7.49862686e-01,4.14386229e-05,6.50074187,-1.54554365,-1,-0.89060184869482
2.44409152e+04,7.59998779,-4.26590256e-10,3.84740170,1.52111769,-3.34512505,7.49863510e-01,4.14385379e-05,6.51429256,-1.50523950,-1,-0.8874240373512859
2.51425803e+04,7.59998750,-4.18359612e-10,3.85637098,1.50628486,-3.34512783,7.49864162e-01,4.14384707e-05,6.52802321,-1.46448664,-1,-0.8841691423451813
2.58624728e+04,7.59998720,-4.09349605e-10,3.86537620,1.49107289,-3.34513003,7.49864837e-01,4.14384011e-05,6.54190556,-1.42329535,-1,-0.8808296937917587
2.66013909e+04,7.59998690,-3.99705429e-10,3.87440742,1.47553678,-3.34512893,7.49865371e-01,4.14383458e-05,6.55593638,-1.38165588,-1,-0.8774019889884126
2.73603740e+04,7.59998660,-3.89618934e-10,3.88345523,1.45973162,-3.34512570,7.49865883e-01,4.14382924e-05,6.57011322,-1.33958508,-1,-0.8738812063502169
2.81400374e+04,7.59998630,-3.79267629e-10,3.89251403,1.44372231,-3.34512262,7.49866503e-01,4.14382276e-05,6.58442257,-1.29713037,-1,-0.8702644916139382
2.89406819e+04,7.59998601,-3.68832971e-10,3.90158184,1.42757245,-3.34512057,7.49867279e-01,4.14381464e-05,6.59884779,-1.25429095,-1,-0.8665504494238461
