star_age,star_mass,star_mdot,log_L,log_Teff,log_R,log_surf_z,v_wind_Km_per_s,log_center_T,log_center_Rho,phase,x
9.64697675e+01,1.99999692e+01,-2.71593166e-07,4.36021951,3.65616212,2.39046266,-3.34509855,2.39093035e-03,5.70948139,-4.81874202,-1,-1.0
1.00261500e+02,1.99999682e+01,-2.68537027e-07,4.35757767,3.65631217,2.38884164,-3.34509855,2.38549832e-03,5.71114532,-4.81228041,-1,-0.9999202742920704
1.04186291e+02,1.99999672e+01,-2.65455055e-07,4.35488808,3.65646539,2.38719042,-3.34509855,2.37997604e-03,5.71284497,-4.80566931,-1,-0.9998377508701386
1.08252036e+02,1.99999661e+01,-2.62335667e-07,4.35214336,3.65662205,2.38550474,-3.34509855,2.37430658e-03,5.71458611,-4.79888610,-1,-0.9997522637218795
1.12468755e+02,1.99999650e+01,-2.59175638e-07,4.34933397,3.65678262,2.38377890,-3.34509856,2.36851287e-03,5.71637645,-4.79190035,-1,-0.999663602164817
1.16844960e+02,1.99999639e+01,-2.55993314e-07,4.34644996,3.65694779,2.38200656,-3.34509856,2.36280031e-03,5.71822469,-4.78467776,-1,-0.9995715872239767
1.21420141e+02,1.99999627e+01,-2.52775899e-07,4.34349089,3.65711772,2.38018716,-3.34509856,2.35701016e-03,5.72013196,-4.77720882,-1,-0.9994753885749077
1.26168392e+02,1.99999616e+01,-2.49506163e-07,4.34047004,3.65729178,2.37832862,-3.34509856,2.35092235e-03,5.72209062,-4.76952522,-1,-0.9993755509222246
1.31097249e+02,1.99999603e+01,-2.46221034e-07,4.33739803,3.65746905,2.37643807,-3.34509857,2.34474059e-03,5.72409288,-4.76165932,-1,-0.99927191581252
1.36214615e+02,1.99999591e+01,-2.42917697e-07,4.33426899,3.65765015,2.37451134,-3.34509857,2.33848478e-03,5.72614531,-4.75358490,-1,-0.9991643170757725
1.41528769e+02,1.99999578e+01,-2.39576874e-07,4.33107896,3.65783550,2.37254562,-3.34509857,2.33200759e-03,5.72825277,-4.74528177,-1,-0.9990525806361116
1.47049457e+02,1.99999565e+01,-2.36223792e-07,4.32781981,3.65802561,2.37053584,-3.34509857,2.32559386e-03,5.73042352,-4.73671527,-1,-0.9989365015722382
1.52784883e+02,1.99999552e+01,-2.32882179e-07,4.32449271,3.65822051,2.36848249,-3.34509858,2.31943886e-03,5.73265892,-4.72788187,-1,-0.9988159073852466
1.58741912e+02,1.99999538e+01,-2.29503003e-07,4.32110702,3.65841961,2.36639143,-3.34509858,2.31297733e-03,5.73495325,-4.71880546,-1,-0.9986906537303061
1.64930118e+02,1.99999524e+01,-2.26082470e-07,4.31766102,3.65862209,2.36426348,-3.34509858,2.30610435e-03,5.73730739,-4.70947936,-1,-0.9985605393026232
1.71359251e+02,1.99999510e+01,-2.22703996e-07,4.31417355,3.65882913,2.36210566,-3.34509859,2.29962587e-03,5.73971279,-4.69992909,-1,-0.9984253590967944
1.78036359e+02,1.99999495e+01,-2.19357662e-07,4.31064301,3.65904027,2.35991812,-3.34509860,2.29341979e-03,5.74217193,-4.69014653,-1,-0.9982849649201951
1.84969903e+02,1.99999480e+01,-2.15989772e-07,4.30706036,3.65925501,2.35769732,-3.34509861,2.28694039e-03,5.74469319,-4.68010184,-1,-0.9981391788701875
1.92169306e+02,1.99999465e+01,-2.12634559e-07,4.30341790,3.65947462,2.35543687,-3.34509862,2.28064217e-03,5.74729013,-4.66974992,-1,-0.9979878028169336
1.99642679e+02,1.99999449e+01,-2.09252585e-07,4.29972807,3.65969866,2.35314387,-3.34509863,2.27399888e-03,5.74995431,-4.65911633,-1,-0.9978306662169634
2.07431813e+02,1.99999433e+01,-2.05859456e-07,4.29599384,3.65992697,2.35082012,-3.34509864,2.26708581e-03,5.75268868,-4.64818168,-1,-0.9976668903645508
2.15519503e+02,1.99999417e+01,-2.02542905e-07,4.29223550,3.66015952,2.34847586,-3.34509865,2.26079242e-03,5.75548080,-4.63699802,-1,-0.9974968370153854
2.23912794e+02,1.99999400e+01,-1.99239384e-07,4.28843794,3.66039587,2.34610438,-3.34509866,2.25449093e-03,5.75834441,-4.62551444,-1,-0.9973203580399214
2.32621855e+02,1.99999383e+01,-1.95966066e-07,4.28460588,3.66063500,2.34371009,-3.34509867,2.24828248e-03,5.76127785,-4.61373844,-1,-0.9971372396227792
2.41656020e+02,1.99999365e+01,-1.92710493e-07,4.28074349,3.66087848,2.34129193,-3.34509867,2.24211624e-03,5.76428750,-4.60164591,-1,-0.9969472855054523
2.51075325e+02,1.99999348e+01,-1.89495846e-07,4.27688844,3.66112884,2.33886369,-3.34509868,2.23611029e-03,5.76736374,-4.58927231,-1,-0.9967492333592819
2.60852134e+02,1.99999329e+01,-1.86318790e-07,4.27299035,3.66138020,2.33641193,-3.34509868,2.23022460e-03,5.77052882,-4.57653087,-1,-0.9965436642642003
2.70990010e+02,1.99999311e+01,-1.83159405e-07,4.26909167,3.66163659,2.33394981,-3.34509869,2.22425493e-03,5.77376784,-4.56348519,-1,-0.9963305033038736
2.81511402e+02,1.99999292e+01,-1.80066757e-07,4.26518907,3.66189563,2.33148043,-3.34509869,2.21867896e-03,5.77708441,-4.55011773,-1,-0.9961092784612445
2.92479493e+02,1.99999272e+01,-1.77006600e-07,4.26129869,3.66215953,2.32900743,-3.34509870,2.21304200e-03,5.78049024,-4.53638608,-1,-0.9958786612382177
3.03848240e+02,1.99999253e+01,-1.74047810e-07,4.25743850,3.66242647,2.32654347,-3.34509870,2.20816556e-03,5.78396374,-4.52238174,-1,-0.9956396197439017
3.15634877e+02,1.99999232e+01,-1.71168403e-07,4.25359719,3.66269692,2.32408190,-3.34509870,2.20384894e-03,5.78752377,-4.50802769,-1,-0.9953917916128472
3.27929846e+02,1.99999212e+01,-1.68311412e-07,4.24979498,3.66297033,2.32163398,-3.34509871,2.19918027e-03,5.79118116,-4.49328446,-1,-0.9951332751939025
3.40669939e+02,1.99999190e+01,-1.65534242e-07,4.24605104,3.66324513,2.31921240,-3.34509871,2.19482560e-03,5.79490859,-4.47826907,-1,-0.9948653995108174
3.53891416e+02,1.99999169e+01,-1.62817028e-07,4.24236381,3.66352329,2.31681248,-3.34509871,2.19066449e-03,5.79872968,-4.46288863,-1,-0.9945874021537521
3.67663294e+02,1.99999147e+01,-1.60229447e-07,4.23875338,3.66380792,2.31443800,-3.34509872,2.18771651e-03,5.80266591,-4.44705394,-1,-0.9942978319577878
3.81926207e+02,1.99999124e+01,-1.57733084e-07,4.23521015,3.66409088,2.31210047,-3.34509872,2.18512849e-03,5.80669476,-4.43087157,-1,-0.9939979371640326
3.96773905e+02,1.99999101e+01,-1.55320117e-07,4.23177999,3.66437903,2.30980909,-3.34509873,2.18299139e-03,5.81084114,-4.41424569,-1,-0.9936857465666807
4.12188795e+02,1.99999077e+01,-1.52994625e-07,4.22847403,3.66466987,2.30757443,-3.34509873,2.18123974e-03,5.81509435,-4.39722630,-1,-0.9933616300795852
4.28174635e+02,1.99999053e+01,-1.50778463e-07,4.22530555,3.66496253,2.30540488,-3.34509876,2.18012902e-03,5.81945555,-4.37980948,-1,-0.9930255086863043
4.44830986e+02,1.99999028e+01,-1.48716227e-07,4.22232285,3.66525822,2.30332213,-3.34509879,2.18019427e-03,5.82394401,-4.36193566,-1,-0.9926752889978117
4.62075942e+02,1.99999003e+01,-1.46785245e-07,4.21951474,3.66555447,2.30132558,-3.34509880,2.18114327e-03,5.82854447,-4.34366707,-1,-0.9923126931856563
4.80045882e+02,1.99998977e+01,-1.45000415e-07,4.21696030,3.66585392,2.29944946,-3.34509880,2.18302571e-03,5.83327839,-4.32493436,-1,-0.9919348537183544
4.98683870e+02,1.99998950e+01,-1.43381899e-07,4.21466010,3.66615189,2.29770342,-3.34509880,2.18599020e-03,5.83812248,-4.30581794,-1,-0.9915429677433596
5.18026478e+02,1.99998923e+01,-1.41927418e-07,4.21263024,3.66645214,2.29608800,-3.34509880,2.19023154e-03,5.84312372,-4.28617618,-1,-0.9911362662906587
5.38168578e+02,1.99998894e+01,-1.40658043e-07,4.21095990,3.66675472,2.29464765,-3.34509880,2.19576701e-03,5.84828657,-4.26599439,-1,-0.9907127545630546
5.59031475e+02,1.99998865e+01,-1.39594002e-07,4.20964913,3.66705801,2.29338571,-3.34509880,2.20293348e-03,5.85359489,-4.24534179,-1,-0.9902740872169837
5.80738619e+02,1.99998835e+01,-1.38771749e-07,4.20881076,3.66736004,2.29236245,-3.34509880,2.21177595e-03,5.85906451,-4.22420372,-1,-0.9898176685686407
6.03287368e+02,1.99998804e+01,-1.38208062e-07,4.20847177,3.66766430,2.29158444,-3.34509880,2.22275586e-03,5.86472715,-4.20244525,-1,-0.9893435541692336
6.26639048e+02,1.99998772e+01,-1.37909758e-07,4.20867148,3.66796832,2.29107625,-3.34509880,2.23575499e-03,5.87056441,-4.18016123,-1,-0.9888525571858378
6.50948978e+02,1.99998738e+01,-1.37986780e-07,4.20958841,3.66827108,2.29092920,-3.34509880,2.25178658e-03,5.87662046,-4.15724455,-1,-0.9883414118508314
6.76146434e+02,1.99998703e+01,-1.38447980e-07,4.21125915,3.66857428,2.29115816,-3.34509880,2.27099888e-03,5.88288563,-4.13373790,-1,-0.9878116052208481
7.02247259e+02,1.99998667e+01,-1.39373021e-07,4.21378824,3.66887691,2.29181745,-3.34509880,2.29419734e-03,5.88936899,-4.10962220,-1,-0.9872628041778764
7.29357286e+02,1.99998629e+01,-1.40917148e-07,4.21741194,3.66918038,2.29302236,-3.34509879,2.32295302e-03,5.89610651,-4.08481963,-1,-0.9866927834565931
7.57375131e+02,1.99998589e+01,-1.43145080e-07,4.22217248,3.66948303,2.29479734,-3.34509879,2.35788433e-03,5.90308644,-4.05938356,-1,-0.9861036747767785
7.86349445e+02,1.99998547e+01,-1.46270460e-07,4.22832890,3.66978632,2.29726897,-3.34509879,2.40120094e-03,5.91033460,-4.03326069,-1,-0.9854944551930072
8.16265545e+02,1.99998502e+01,-1.50523322e-07,4.23613943,3.67009109,2.30056469,-3.34509878,2.45493832e-03,5.91786425,-4.00643997,-1,-0.9848654334329039
8.47036228e+02,1.99998455e+01,-1.56102441e-07,4.24578006,3.67039600,2.30477519,-3.34509878,2.52059349e-03,5.92567696,-3.97896710,-1,-0.9842184430437744
8.78597199e+02,1.99998404e+01,-1.63382452e-07,4.25761837,3.67070710,2.31007213,-3.34509877,2.60137188e-03,5.93378732,-3.95087245,-1,-0.983554835904843
9.10769913e+02,1.99998349e+01,-1.72685447e-07,4.27182269,3.67102891,2.31653069,-3.34509876,2.69984334e-03,5.94217020,-3.92226682,-1,-0.982878366138143
9.43373090e+02,1.99998290e+01,-1.84553920e-07,4.28870604,3.67137247,2.32428522,-3.34509874,2.82061160e-03,5.95080431,-3.89323754,-1,-0.9821928453723514
9.76155885e+02,1.99998227e+01,-1.99456168e-07,4.30839241,3.67175518,2.33336300,-3.34509872,2.96752895e-03,5.95965078,-3.86393888,-1,-0.9815035479234191
1.00882268e+03,1.99998158e+01,-2.18120674e-07,4.33104749,3.67222691,2.34374708,-3.34509870,3.14927861e-03,5.96867473,-3.83457186,-1,-0.9808166895131373
1.04102459e+03,1.99998083e+01,-2.41216257e-07,4.35665586,3.67284832,2.35530844,-3.34509868,3.37549372e-03,5.97780769,-3.80540707,-1,-0.9801396058656403
1.07219550e+03,1.99998003e+01,-2.70157220e-07,4.38541691,3.67379755,2.36779051,-3.34509866,3.67678395e-03,5.98690745,-3.77687801,-1,-0.9794842002254593
1.10336865e+03,1.99997912e+01,-3.04355046e-07,4.41501142,3.67532813,2.37952661,-3.34509864,4.09109413e-03,5.99627615,-3.74798011,-1,-0.978828747486601
1.13774045e+03,1.99997801e+01,-3.36255297e-07,4.44032704,3.67745073,2.38793921,-3.34509862,4.58002232e-03,6.00683257,-3.71591987,-1,-0.978106039308265
1.17478156e+03,1.99997670e+01,-3.64314124e-07,4.46174320,3.68010539,2.39333796,-3.34509860,5.14731038e-03,6.01839746,-3.68124345,-1,-0.977327205696652
1.21314405e+03,1.99997524e+01,-3.90193668e-07,4.48108534,3.68345685,2.39630613,-3.34509859,5.86198688e-03,6.03050800,-3.64535289,-1,-0.9765205884911425
1.25199759e+03,1.99997367e+01,-4.13519471e-07,4.49877790,3.68775437,2.39655735,-3.34509858,6.81431624e-03,6.04287177,-3.60906968,-1,-0.9757036463724493
1.29066704e+03,1.99997203e+01,-4.33419498e-07,4.51489981,3.69308653,2.39395400,-3.34509857,8.09635085e-03,6.05523050,-3.57311587,-1,-0.9748905749660419
1.32933528e+03,1.99997032e+01,-4.50303381e-07,4.52972297,3.69910076,2.38933712,-3.34509857,9.73250544e-03,6.06758600,-3.53747159,-1,-0.9740775290013308
1.36818684e+03,1.99996853e+01,-4.64979558e-07,4.54354010,3.70557456,2.38329808,-3.34509856,1.17648860e-02,6.08001173,-3.50185029,-1,-0.9732606285145042
1.40731357e+03,1.99996669e+01,-4.77762021e-07,4.55650267,3.71239985,2.37612879,-3.34509858,1.42657716e-02,6.09253770,-3.46613346,-1,-0.9724379422495271
1.44687715e+03,1.99996477e+01,-4.88629058e-07,4.56860800,3.71950118,2.36797880,-3.34509856,1.73394971e-02,6.10512447,-3.43047070,-1,-0.9716060706911493
1.48676739e+03,1.99996280e+01,-4.97777194e-07,4.58000716,3.72685521,2.35897032,-3.34509858,2.11606780e-02,6.11785638,-3.39452522,-1,-0.970767330715827
1.52725216e+03,1.99996077e+01,-5.04955235e-07,4.59055574,3.73440491,2.34914520,-3.34509856,2.59090621e-02,6.13060599,-3.35874623,-1,-0.9699160900366351
1.56823570e+03,1.99995869e+01,-5.10255677e-07,4.60034118,3.74214201,2.33856373,-3.34509855,3.18015481e-02,6.14343724,-3.32287145,-1,-0.969054362122032
1.60982753e+03,1.99995656e+01,-5.13616123e-07,4.60933368,3.75003558,2.32727284,-3.34509855,3.91218812e-02,6.15632065,-3.28701294,-1,-0.9681798441831123
1.65205010e+03,1.99995438e+01,-5.15148308e-07,4.61758150,3.75806640,2.31533510,-3.34509855,4.82783296e-02,6.16925884,-3.25112209,-1,-0.9672920641817926
1.69494832e+03,1.99995217e+01,-5.14937922e-07,4.62511673,3.76621636,2.30280279,-3.34509857,5.97540927e-02,6.18224064,-3.21521351,-1,-0.9663900778316435
1.73853222e+03,1.99994993e+01,-5.13156125e-07,4.63200819,3.77447245,2.28973635,-3.34509856,7.42107979e-02,6.19526886,-3.17923720,-1,-0.9654736742399267
1.78293423e+03,1.99994766e+01,-5.09815942e-07,4.63822878,3.78281121,2.27616911,-3.34509862,9.25535503e-02,6.20831643,-3.14330905,-1,-0.9645400689076032
1.82817478e+03,1.99994537e+01,-5.05089714e-07,4.64383985,3.79122212,2.26215284,-3.34509864,1.15990450e-01,6.22138808,-3.10737195,-1,-0.9635888322695041
1.87431663e+03,1.99994305e+01,-4.99130304e-07,4.64888080,3.79969263,2.24773228,-3.34509867,1.46236815e-01,6.23447832,-3.07144110,-1,-0.9626186447216146
1.92141162e+03,1.99994072e+01,-4.92085878e-07,4.65339580,3.80821217,2.23295072,-3.34509872,1.85303884e-01,6.24758103,-3.03552860,-1,-0.9616284162659723
1.96954876e+03,1.99993837e+01,-4.84153907e-07,4.65742829,3.81676645,2.21785840,-3.34509882,2.37274186e-01,6.26070228,-2.99963363,-1,-0.9606162753609367
2.01879671e+03,1.99993601e+01,-4.75434789e-07,4.66101397,3.82534715,2.20248983,-3.34509884,3.06962818e-01,6.27384142,-2.96377920,-1,-0.9595807783479412
2.06922322e+03,1.99993364e+01,-4.66073795e-07,4.66418610,3.83394599,2.18687823,-3.34509854,4.00575824e-01,6.28699572,-2.92799930,-1,-0.9585205007022567
2.12091722e+03,1.99993126e+01,-4.56143998e-07,4.66696570,3.84255504,2.17104993,-3.34509856,5.27350817e-01,6.30016465,-2.89233481,-1,-0.9574335725643385
2.17396134e+03,1.99992887e+01,-4.45739895e-07,4.66936571,3.85116704,2.15502592,-3.34509855,7.00460207e-01,6.31334558,-2.85683799,-1,-0.9563182565396721
2.22844796e+03,1.99992648e+01,-4.34896941e-07,4.67138458,3.85977551,2.13881843,-3.34509844,9.37870909e-01,6.32653630,-2.82157424,-1,-0.9551726102283389
2.28447181e+03,1.99992408e+01,-4.23647293e-07,4.67300459,3.86837625,2.12242695,-3.34509841,1.25721728,6.33972302,-2.78664591,-1,-0.9539946418188617
2.34212775e+03,1.99992167e+01,-4.11999241e-07,4.67420046,3.87696357,2.10585024,-3.34509847,1.67009474,6.35288180,-2.75214659,-1,-0.952782356766358
2.40155629e+03,1.99991927e+01,-3.99955605e-07,4.67493300,3.88552807,2.08908750,-3.34509850,2.17925004,6.36597673,-2.71813831,-1,-0.9515328006801315
2.46291586e+03,1.99991686e+01,-3.87520592e-07,4.67515933,3.89405763,2.07214155,-3.34509852,2.76717827,6.37894458,-2.68461870,-1,-0.9502426423800665
2.52636277e+03,1.99991445e+01,-3.74714672e-07,4.67484569,3.90253801,2.05502397,-3.34509854,3.38820647,6.39169345,-2.65146919,-1,-0.9489085952615814
2.59207485e+03,1.99991203e+01,-3.61601784e-07,4.67397650,3.91095147,2.03776246,-3.34509855,3.99404301,6.40412346,-2.61843745,-1,-0.9475269202363729
2.66020672e+03,1.99990962e+01,-3.48288239e-07,4.67257217,3.91928113,2.02040098,-3.34509856,4.55431422,6.41616993,-2.58518324,-1,-0.9460943662341291
2.73087194e+03,1.99990722e+01,-3.34919991e-07,4.67069257,3.92751602,2.00299139,-3.34509857,5.05523476,6.42785714,-2.55140478,-1,-0.9446085455201163
2.80415074e+03,1.99990482e+01,-3.21659290e-07,4.66842865,3.93565248,1.98558652,-3.34509857,5.49066531,6.43931349,-2.51695426,-1,-0.9430677711626884
2.88011160e+03,1.99990244e+01,-3.08664092e-07,4.66588559,3.94369220,1.96823555,-3.34509860,5.85529228,6.45071476,-2.48183548,-1,-0.9414706032879937
2.95885552e+03,1.99990006e+01,-2.96073296e-07,4.66316975,3.95163825,1.95098553,-3.34509862,6.14414780,6.46219748,-2.44612584,-1,-0.9398149182503108
3.04045459e+03,1.99989771e+01,-2.83998370e-07,4.66038988,3.95949457,1.93388295,-3.34509864,6.35951810,6.47382379,-2.40988230,-1,-0.9380992002712232
3.12499452e+03,1.99989536e+01,-2.72540795e-07,4.65766129,3.96726501,1.91697777,-3.34509870,6.51471381,6.48561054,-2.37312887,-1,-0.9363216471955347
3.21258414e+03,1.99989303e+01,-2.61806232e-07,4.65511950,3.97495503,1.90032685,-3.34509874,6.62356275,6.49755994,-2.33587578,-1,-0.9344799707424152
3.30321550e+03,1.99989071e+01,-2.51878536e-07,4.65291388,3.98257616,1.88398177,-3.34509892,6.69922273,6.50966756,-2.29815055,-1,-0.9325743380701167
3.39691773e+03,1.99988841e+01,-2.42856782e-07,4.65121722,3.99014275,1.86800025,-3.34509919,6.74927612,6.52192645,-2.25999043,-1,-0.9306041366855714
3.49358279e+03,1.99988610e+01,-2.34801165e-07,4.65018758,3.99767432,1.85242229,-3.34509880,6.78047416,6.53432295,-2.22145857,-1,-0.9285716382589155
3.59309496e+03,1.99988388e+01,-2.08502658e-07,4.64996758,4.00519159,1.83727777,-3.34509900,6.22334078,6.54684279,-2.18261960,-1,-0.9264792759414647
3.69529415e+03,1.99988202e+01,-1.65074993e-07,4.65065104,4.01271529,1.82257209,-3.34509905,5.06691541,6.55947014,-2.14354716,-1,-0.9243304158168187
3.79998241e+03,1.99988055e+01,-1.23597225e-07,4.65225273,4.02026327,1.80827699,-3.34509901,3.88300357,6.57219063,-2.10430760,-1,-0.9221292200203298
3.90700280e+03,1.99987949e+01,-8.34923737e-08,4.65472204,4.02784937,1.79433944,-3.34509913,2.67302973,6.58498912,-2.06496282,-1,-0.9198789884030826
4.01624927e+03,1.99987884e+01,-4.42631667e-08,4.65794706,4.03548247,1.78068573,-3.34509934,1.43886439,6.59785827,-2.02554724,-1,-0.9175819507930846
4.12768029e+03,1.99987860e+01,-6.47059168e-09,4.66177848,4.04316737,1.76723166,-3.34509931,2.13056444e-01,6.61079439,-1.98608244,-1,-0.915238980408225
4.24133381e+03,1.99987852e+01,-6.73718778e-09,4.66605238,4.05090550,1.75389235,-3.34509945,2.24413880e-01,6.62379721,-1.94656841,-1,-0.9128492793043939
4.35726607e+03,1.99987844e+01,-7.02708595e-09,4.67060813,4.05869562,1.74058999,-3.34509992,2.36735746e-01,6.63686870,-1.90699874,-1,-0.9104116649683694
4.47557526e+03,1.99987836e+01,-7.33688236e-09,4.67530611,4.06653509,1.72726002,-3.34510024,2.49959554e-01,6.65001329,-1.86735364,-1,-0.9079240728380388
4.59638186e+03,1.99987827e+01,-7.66333131e-09,4.68003247,4.07442063,1.71385214,-3.34510047,2.63978582e-01,6.66323135,-1.82763206,-1,-0.9053839696773968
4.71981781e+03,1.99987817e+01,-8.00345255e-09,4.68469905,4.08234801,1.70033066,-3.34510047,2.78689423e-01,6.67652192,-1.78782685,-1,-0.9027885812902403
4.84602135e+03,1.99987807e+01,-8.35473212e-09,4.68924171,4.09031247,1.68667306,-3.34510033,2.94126863e-01,6.68988396,-1.74793053,-1,-0.9001350010153363
4.97513277e+03,1.99987796e+01,-8.71504780e-09,4.69361745,4.09830909,1.67286769,-3.34510010,3.10391260e-01,6.70331541,-1.70794081,-1,-0.8974202790877513
5.10728961e+03,1.99987784e+01,-9.08274006e-09,4.69780025,4.10633305,1.65891118,-3.34509989,3.27609876e-01,6.71681440,-1.66785403,-1,-0.894641523564589
5.24262869e+03,1.99987771e+01,-9.45660614e-09,4.70177719,4.11437993,1.64480588,-3.34509975,3.45822483e-01,6.73037408,-1.62767762,-1,-0.8917958576418135
5.38128453e+03,1.99987758e+01,-9.83575147e-09,4.70554468,4.12244554,1.63055842,-3.34509967,3.65004905e-01,6.74399045,-1.58741395,-1,-0.8888804528756378
5.52339685e+03,1.99987744e+01,-1.02196096e-08,4.70910593,4.13052612,1.61617788,-3.34509966,3.85136387e-01,6.75765798,-1.54707246,-1,-0.8858923714860599
5.66912652e+03,1.99987728e+01,-1.06078786e-08,4.71246767,4.13861809,1.60167480,-3.34509974,4.06290161e-01,6.77137282,-1.50665428,-1,-0.882828230989048
5.81858502e+03,1.99987712e+01,-1.10003798e-08,4.71564233,4.14671819,1.58706194,-3.34509991,4.28615711e-01,6.78513008,-1.46616894,-1,-0.879685687384354
5.97190810e+03,1.99987695e+01,-1.13971275e-08,4.71864188,4.15482339,1.57235132,-3.34510020,4.52312676e-01,6.79892704,-1.42561466,-1,-0.8764618863659711
6.12928899e+03,1.99987677e+01,-1.17983209e-08,4.72147679,4.16293140,1.55755275,-3.34510033,4.77518665e-01,6.81275704,-1.38500652,-1,-0.8731527650421886
6.29081988e+03,1.99987657e+01,-1.22039979e-08,4.72416085,4.17103993,1.54267772,-3.34510035,5.04222474e-01,6.82661549,-1.34434866,-1,-0.8697563850080654
