star_age,star_mass,star_mdot,log_L,log_Teff,log_R,log_surf_z,v_wind_Km_per_s,log_center_T,log_center_Rho,phase,x
8.70728723e+01,4.49997494e+01,-5.40932563e-06,5.22115913,3.76708997,2.59907679,-3.34509852,2.78838737e-01,6.05322146,-4.13467294,-1,-1.0
8.98935373e+01,4.49997330e+01,-5.54384784e-06,5.22796957,3.76818780,2.60028634,-3.34509852,2.91894787e-01,6.05549923,-4.12744937,-1,-0.9998314291814588
9.27142024e+01,4.49997166e+01,-5.67837004e-06,5.23478001,3.76928563,2.60149589,-3.34509853,3.04950837e-01,6.05777701,-4.12022581,-1,-0.9996628583569415
9.55348674e+01,4.49997002e+01,-5.81289225e-06,5.24159044,3.77038346,2.60270545,-3.34509853,3.18006887e-01,6.06005478,-4.11300225,-1,-0.9994942875384003
9.86068359e+01,4.49996811e+01,-5.97376941e-06,5.24828701,3.77153973,2.60374119,-3.34509853,3.34523154e-01,6.06257434,-4.10507106,-1,-0.9993106981208064
1.01683790e+02,4.49996619e+01,-6.13516939e-06,5.25498132,3.77269716,2.60477349,-3.34509853,3.51108063e-01,6.06509868,-4.09712584,-1,-0.9991268107498317
1.04849260e+02,4.49996417e+01,-6.28909791e-06,5.26162690,3.77388033,2.60572994,-3.34509853,3.68136052e-01,6.06770815,-4.08893648,-1,-0.9989376334214473
1.08194061e+02,4.49996195e+01,-6.42788978e-06,5.26817378,3.77511566,2.60653272,-3.34509853,3.86061689e-01,6.07049005,-4.08025253,-1,-0.9987377387716299
1.11538861e+02,4.49995973e+01,-6.56668165e-06,5.27472066,3.77635099,2.60733550,-3.34509853,4.03987327e-01,6.07327194,-4.07156858,-1,-0.9985378441815752
1.15048847e+02,4.49995732e+01,-6.70425548e-06,5.28118890,3.77764374,2.60798413,-3.34509854,4.23826902e-01,6.07621464,-4.06242420,-1,-0.9983280776147947
1.18706129e+02,4.49995474e+01,-6.84074318e-06,5.28758703,3.77898769,2.60849529,-3.34509854,4.45373141e-01,6.07930073,-4.05286926,-1,-0.9981095082276553
1.22363412e+02,4.49995216e+01,-6.97723088e-06,5.29398515,3.78033164,2.60900645,-3.34509855,4.66919380e-01,6.08238681,-4.04331432,-1,-0.997890938780753
1.26183459e+02,4.49994938e+01,-7.11926175e-06,5.30032484,3.78173713,2.60936531,-3.34509855,4.91406870e-01,6.08562708,-4.03332251,-1,-0.9976626421026096
1.30199510e+02,4.49994636e+01,-7.26796788e-06,5.30659414,3.78321674,2.60954075,-3.34509855,5.19436310e-01,6.08905303,-4.02280460,-1,-0.9974226316779853
1.34215562e+02,4.49994334e+01,-7.41667401e-06,5.31286345,3.78469634,2.60971619,-3.34509855,5.47465750e-01,6.09247898,-4.01228669,-1,-0.9971826211935981
1.38348784e+02,4.49994017e+01,-7.57081743e-06,5.31910258,3.78622327,2.60978189,-3.34509856,5.78440024e-01,6.09601363,-4.00146145,-1,-0.9969356083027542
1.42742872e+02,4.49993665e+01,-7.73706641e-06,5.32527452,3.78785558,2.60960326,-3.34509857,6.15970674e-01,6.09979028,-3.98995197,-1,-0.9966730053311494
1.47136961e+02,4.49993314e+01,-7.90331539e-06,5.33144647,3.78948788,2.60942462,-3.34509858,6.53501324e-01,6.10356693,-3.97844248,-1,-0.9964104022997817
1.51678410e+02,4.49992942e+01,-8.07336515e-06,5.33758569,3.79118401,2.60910198,-3.34509858,6.95746510e-01,6.10747764,-3.96655648,-1,-0.9961389926232364
1.56439866e+02,4.49992539e+01,-8.24908936e-06,5.34367605,3.79297542,2.60856434,-3.34509858,7.45030393e-01,6.11158849,-3.95410833,-1,-0.9958544347138897
1.61201321e+02,4.49992137e+01,-8.42481357e-06,5.34976641,3.79476683,2.60802669,-3.34509858,7.94314275e-01,6.11569935,-3.94166019,-1,-0.9955698768643056
1.66254687e+02,4.49991692e+01,-8.59614774e-06,5.35578103,3.79669516,2.60717735,-3.34509859,8.54854562e-01,6.12006982,-3.92849034,-1,-0.9952678735980518
1.71365503e+02,4.49991240e+01,-8.76661792e-06,5.36178075,3.79865044,2.60626666,-3.34509860,9.17610181e-01,6.12449138,-3.91517845,-1,-0.9949624369593396
1.76646716e+02,4.49990763e+01,-8.93427801e-06,5.36772824,3.80069167,2.60515794,-3.34509863,9.88717919e-01,6.12906090,-3.90145742,-1,-0.9946468169199872
1.82094405e+02,4.49990261e+01,-9.09919267e-06,5.37362470,3.80281688,2.60385575,-3.34509867,1.06798561,6.13377495,-3.88733667,-1,-0.9943212478099058
1.87657283e+02,4.49989743e+01,-9.26176735e-06,5.37947975,3.80500271,2.60241160,-3.34509869,1.15496887,6.13858588,-3.87294904,-1,-0.9939887946834607
1.93432679e+02,4.49989193e+01,-9.42002492e-06,5.38525838,3.80730040,2.60070555,-3.34509866,1.25618691,6.14357555,-3.85806903,-1,-0.993643640887771
1.99315312e+02,4.49988626e+01,-9.57559012e-06,5.39099230,3.80965709,2.59885913,-3.34509864,1.36694522,6.14865229,-3.84295096,-1,-0.9932920783094474
2.05410612e+02,4.49988028e+01,-9.72581596e-06,5.39663756,3.81213079,2.59673435,-3.34509867,1.49662322,6.15390171,-3.82736079,-1,-0.9929278061572231
2.11642889e+02,4.49987410e+01,-9.87018512e-06,5.40221393,3.81468339,2.59441735,-3.34509869,1.64217880,6.15925818,-3.81147962,-1,-0.9925553478769009
2.18055552e+02,4.49986764e+01,-1.00068416e-05,5.40769959,3.81733987,2.59184721,-3.34509868,1.80864361,6.16475561,-3.79521522,-1,-0.992172109225399
2.24649178e+02,4.49986092e+01,-1.01380628e-05,5.41308294,3.82010379,2.58901104,-3.34509863,2.00382903,6.17038769,-3.77858499,-1,-0.991778055719586
2.31379367e+02,4.49985399e+01,-1.02651823e-05,5.41838909,3.82294880,2.58597410,-3.34509855,2.22068827,6.17612137,-3.76167868,-1,-0.9913758408274714
2.38347330e+02,4.49984671e+01,-1.03851227e-05,5.42355002,3.82593770,2.58257676,-3.34509852,2.48972130,6.18202395,-3.74431275,-1,-0.990959415897012
2.45409808e+02,4.49983929e+01,-1.05016875e-05,5.42865136,3.82898416,2.57903452,-3.34509850,2.78126333,6.18799287,-3.72676648,-1,-0.9905373424861714
2.52748005e+02,4.49983147e+01,-1.06034751e-05,5.43356139,3.83220184,2.57505416,-3.34509850,3.15519102,6.19414794,-3.70871638,-1,-0.9900987913378053
2.60220709e+02,4.49982346e+01,-1.06976556e-05,5.43836607,3.83550476,2.57085066,-3.34509849,3.58225865,6.20038542,-3.69044485,-1,-0.98965220167544
2.67846301e+02,4.49981523e+01,-1.07831895e-05,5.44305102,3.83890456,2.56639353,-3.34509849,4.06972802,6.20671657,-3.67192163,-1,-0.9891964749991772
2.75729778e+02,4.49980665e+01,-1.08521736e-05,5.44751596,3.84247594,2.56148326,-3.34509849,4.68875948,6.21320016,-3.65298289,-1,-0.9887253363950395
2.83756885e+02,4.49979789e+01,-1.09110460e-05,5.45185089,3.84614567,2.55631126,-3.34509849,5.40010811,6.21976689,-3.63381669,-1,-0.9882456140609419
2.91943620e+02,4.49978891e+01,-1.09584373e-05,5.45603848,3.84992503,2.55084633,-3.34509849,6.22157562,6.22642409,-3.61440317,-1,-0.9877563519117221
3.00354833e+02,4.49977967e+01,-1.09888388e-05,5.46000589,3.85385798,2.54496414,-3.34509849,7.23280551,6.23319631,-3.59467758,-1,-0.9872536743302532
3.08954272e+02,4.49977020e+01,-1.10042982e-05,5.46377501,3.85791827,2.53872812,-3.34509848,8.44109037,6.24005111,-3.57472877,-1,-0.9867397478373076
3.17724281e+02,4.49976055e+01,-1.10057252e-05,5.46736190,3.86209623,2.53216564,-3.34509848,9.85450377,6.24698266,-3.55456840,-1,-0.9862156276047584
3.26671032e+02,4.49975072e+01,-1.09923829e-05,5.47075599,3.86639657,2.52526201,-3.34509848,1.15036183e+01,6.25399062,-3.53419822,-1,-0.9856809447766475
3.35799233e+02,4.49974071e+01,-1.09638664e-05,5.47394605,3.87082121,2.51800775,-3.34509848,1.34138589e+01,6.26106785,-3.51364215,-1,-0.9851354179897451
3.45112062e+02,4.49973054e+01,-1.09198681e-05,5.47692102,3.87537065,2.51039637,-3.34509848,1.55929040e+01,6.26820245,-3.49293113,-1,-0.9845788573178952
3.54626747e+02,4.49972021e+01,-1.08587843e-05,5.47965937,3.88005719,2.50239245,-3.34509848,1.80418370e+01,6.27539920,-3.47204914,-1,-0.9840102331676998
3.64320057e+02,4.49970977e+01,-1.07829480e-05,5.48219438,3.88486283,2.49404868,-3.34509848,2.06943965e+01,6.28265240,-3.45101008,-1,-0.9834309338886031
3.74196442e+02,4.49969921e+01,-1.06930651e-05,5.48451988,3.88978047,2.48537614,-3.34509849,2.34975922e+01,6.28994539,-3.42986316,-1,-0.9828406935361766
3.84257957e+02,4.49968855e+01,-1.05896544e-05,5.48664070,3.89480629,2.47638491,-3.34509849,2.63798446e+01,6.29727806,-3.40860595,-1,-0.9822393892978803
3.94507769e+02,4.49967782e+01,-1.04736338e-05,5.48856231,3.89993458,2.46708914,-3.34509848,2.92543406e+01,6.30464772,-3.38724702,-1,-0.981626831904949
4.04950057e+02,4.49966701e+01,-1.03460216e-05,5.49029149,3.90515819,2.45750651,-3.34509849,3.20319533e+01,6.31205223,-3.36579103,-1,-0.9810027716086706
4.15590630e+02,4.49965614e+01,-1.02079460e-05,5.49183625,3.91046847,2.44765835,-3.34509849,3.46641417e+01,6.31949020,-3.34424090,-1,-0.9803668612469805
4.26444776e+02,4.49964521e+01,-1.00699939e-05,5.49319300,3.91585711,2.43755943,-3.34509848,3.71589762e+01,6.32695919,-3.32260703,-1,-0.9797181871662991
4.37517591e+02,4.49963422e+01,-9.92010696e-06,5.49438106,3.92131452,2.42723864,-3.34509849,3.94646474e+01,6.33445910,-3.30088849,-1,-0.9790564448154334
4.48808095e+02,4.49962321e+01,-9.74999738e-06,5.49542071,3.92683319,2.41672113,-3.34509849,4.15459174e+01,6.34199280,-3.27907900,-1,-0.9783816927619206
4.60345196e+02,4.49961215e+01,-9.57772475e-06,5.49629951,3.93240991,2.40600708,-3.34509849,4.34526589e+01,6.34956186,-3.25717867,-1,-0.9776922033829402
4.72126070e+02,4.49960107e+01,-9.40559763e-06,5.49703238,3.93803396,2.39512543,-3.34509850,4.51859397e+01,6.35716233,-3.23519872,-1,-0.9769881454486198
4.84156867e+02,4.49958995e+01,-9.23842132e-06,5.49762851,3.94369683,2.38409775,-3.34509850,4.67575490e+01,6.36479028,-3.21315979,-1,-0.9762691514177823
4.96445447e+02,4.49957881e+01,-9.05903546e-06,5.49809928,3.94939476,2.37293727,-3.34509850,4.80665639e+01,6.37244763,-3.19105787,-1,-0.9755347515548747
5.09005687e+02,4.49956766e+01,-8.86927551e-06,5.49844739,3.95512484,2.36165117,-3.34509849,4.91037315e+01,6.38013654,-3.16889298,-1,-0.9747841165316184
5.21852414e+02,4.49955649e+01,-8.68950356e-06,5.49867236,3.96087953,2.35025428,-3.34509850,4.99881387e+01,6.38785367,-3.14668471,-1,-0.9740163602450816
5.34995059e+02,4.49954529e+01,-8.51148934e-06,5.49878091,3.96665253,2.33876256,-3.34509851,5.06974137e+01,6.39559655,-3.12444740,-1,-0.9732309190723634
5.48436839e+02,4.49953408e+01,-8.31972569e-06,5.49877951,3.97244131,2.32718428,-3.34509852,5.11609421e+01,6.40336595,-3.10218219,-1,-0.9724276007565584
5.62200703e+02,4.49952287e+01,-8.12914776e-06,5.49866261,3.97824170,2.31552506,-3.34509852,5.14814922e+01,6.41116102,-3.07990268,-1,-0.9716050338013302
5.76331534e+02,4.49951162e+01,-7.95296862e-06,5.49842042,3.98404596,2.30379545,-3.34509853,5.17537682e+01,6.41897610,-3.05764144,-1,-0.9707605358732401
5.90809144e+02,4.49950037e+01,-7.76979532e-06,5.49806611,3.98985031,2.29200958,-3.34509854,5.18714353e+01,6.42680519,-3.03540422,-1,-0.9698953134635533
6.05651866e+02,4.49948910e+01,-7.57800424e-06,5.49759473,3.99565253,2.28016946,-3.34509854,5.18344532e+01,6.43464623,-3.01319431,-1,-0.9690082709409855
6.20878956e+02,4.49947782e+01,-7.39778165e-06,5.49700253,4.00144554,2.26828734,-3.34509855,5.17937927e+01,6.44248941,-2.99102769,-1,-0.9680982575131948
6.36505313e+02,4.49946710e+01,-6.81531394e-06,5.49629180,4.00722394,2.25637518,-3.34509857,4.87824624e+01,6.45032511,-2.96890860,-1,-0.9671643827743279
6.52537495e+02,4.49945769e+01,-5.75475199e-06,5.49546412,4.01298666,2.24443589,-3.34509858,4.20953532e+01,6.45814842,-2.94681667,-1,-0.9662062547999883
6.69008815e+02,4.49944975e+01,-4.72126597e-06,5.49451281,4.01872695,2.23247965,-3.34509859,3.52742659e+01,6.46594812,-2.92474039,-1,-0.9652218827122527
6.85971474e+02,4.49944342e+01,-3.71767877e-06,5.49343171,4.02443899,2.22051502,-3.34509862,2.83256710e+01,6.47371359,-2.90263971,-1,-0.964208146833563
7.03410199e+02,4.49943866e+01,-2.71324108e-06,5.49223264,4.03012339,2.20854670,-3.34509863,2.10603463e+01,6.48144598,-2.88045853,-1,-0.9631659599210571
7.21332885e+02,4.49943538e+01,-1.80802937e-06,5.49092671,4.03577541,2.19658969,-3.34509865,1.42867308e+01,6.48914219,-2.85816054,-1,-0.962094850147484
7.39749704e+02,4.49943362e+01,-9.09914498e-07,5.48952468,4.04139557,2.18464835,-3.34509867,7.31105865,6.49681148,-2.83569451,-1,-0.9609942096057132
7.58687832e+02,4.49943304e+01,-2.85649070e-07,5.48803564,4.04698226,2.17273044,-3.34509866,2.33477749,6.50446733,-2.81301068,-1,-0.959862414182082
7.78156745e+02,4.49943275e+01,-1.49032649e-07,5.48647552,4.05253445,2.16084601,-3.34509873,1.24762397,6.51212592,-2.79008500,-1,-0.9586988975643638
7.98158078e+02,4.49943245e+01,-1.49907001e-07,5.48486023,4.05805583,2.14899560,-3.34509869,1.27950644,6.51980921,-2.76690090,-1,-0.9575035620403921
8.18723367e+02,4.49943214e+01,-1.50693825e-07,5.48320771,4.06354499,2.13719103,-3.34509875,1.31176255,6.52753575,-2.74345152,-1,-0.9562745229307265
8.39881435e+02,4.49943182e+01,-1.51414693e-07,5.48153828,4.06900031,2.12544568,-3.34509878,1.34428567,6.53532234,-2.71973418,-1,-0.9550100576923841
8.61626339e+02,4.49943149e+01,-1.52174079e-07,5.47986517,4.07442774,2.11375425,-3.34509885,1.37772205,6.54318295,-2.69575027,-1,-0.9537105214956438
8.84002240e+02,4.49943115e+01,-1.52949947e-07,5.47820296,4.07982889,2.10212085,-3.34509881,1.41172320,6.55113052,-2.67148836,-1,-0.9523732751558037
9.06994314e+02,4.49943080e+01,-1.53678288e-07,5.47657278,4.08520293,2.09055768,-3.34509880,1.44567888,6.55916142,-2.64697002,-1,-0.9509992045965071
9.30616790e+02,4.49943043e+01,-1.54440305e-07,5.47498874,4.09055181,2.07906791,-3.34509879,1.48049083,6.56727860,-2.62219316,-1,-0.9495874594529725
9.54897916e+02,4.49943005e+01,-1.55249247e-07,5.47346642,4.09587711,2.06765613,-3.34509879,1.51647127,6.57548591,-2.59714923,-1,-0.9481363515458228
9.79853223e+02,4.49942966e+01,-1.56054735e-07,5.47202817,4.10117755,2.05633614,-3.34509881,1.55324513,6.58377991,-2.57184976,-1,-0.9466449526991199
1.00548185e+03,4.49942926e+01,-1.56926607e-07,5.47069108,4.10645660,2.04510949,-3.34509882,1.59154948,6.59216208,-2.54629046,-1,-0.9451133143686286
1.03180372e+03,4.49942885e+01,-1.57933555e-07,5.46946585,4.11171806,2.03397395,-3.34509879,1.63209499,6.60063542,-2.52046561,-1,-0.9435402459002237
1.05885542e+03,4.49942842e+01,-1.59021390e-07,5.46836959,4.11696109,2.02293977,-3.34509879,1.67425603,6.60919563,-2.49438893,-1,-0.9419235607525974
1.08664889e+03,4.49942797e+01,-1.60149843e-07,5.46743297,4.12218729,2.01201906,-3.34509885,1.71745333,6.61784251,-2.46806202,-1,-0.9402625453580014
1.11517695e+03,4.49942751e+01,-1.61428761e-07,5.46666734,4.12740060,2.00120963,-3.34509888,1.76277441,6.62657462,-2.44149091,-1,-0.9385576288132892
1.14445209e+03,4.49942703e+01,-1.62931486e-07,5.46608502,4.13260617,1.99050732,-3.34509892,1.81107898,6.63539447,-2.41466842,-1,-0.9368080646811764
1.17450694e+03,4.49942654e+01,-1.64568012e-07,5.46571240,4.13780623,1.97992089,-3.34509897,1.86147500,6.64430234,-2.38759821,-1,-0.9350119029017269
1.20534103e+03,4.49942603e+01,-1.66350183e-07,5.46556686,4.14300325,1.96945409,-3.34509905,1.91418891,6.65329488,-2.36029211,-1,-0.9331691715634535
1.23694902e+03,4.49942549e+01,-1.68416754e-07,5.46565425,4.14820235,1.95909958,-3.34509914,1.97099782,6.66237147,-2.33275235,-1,-0.9312801897996709
1.26936329e+03,4.49942494e+01,-1.70657362e-07,5.46599762,4.15340684,1.94886228,-3.34509923,2.03080944,6.67153098,-2.30498703,-1,-0.9293430224911414
1.30257950e+03,4.49942437e+01,-1.73120082e-07,5.46660379,4.15862028,1.93873848,-3.34509940,2.09431491,6.68076976,-2.27700910,-1,-0.9273579290083868
1.33658414e+03,4.49942377e+01,-1.75981092e-07,5.46746478,4.16384805,1.92871345,-3.34509961,2.16380819,6.69008717,-2.24882242,-1,-0.9253257167467405
1.37140963e+03,4.49942314e+01,-1.79011024e-07,5.46859468,4.16909375,1.91878700,-3.34509995,2.23661753,6.69948117,-2.22043449,-1,-0.9232444481964532
1.40704879e+03,4.49942249e+01,-1.82329570e-07,5.46998355,4.17436101,1.90894690,-3.34510007,2.31432855,6.70894782,-2.19186072,-1,-0.9211145524543788
1.44348208e+03,4.49942182e+01,-1.86161308e-07,5.47160661,4.17965433,1.89917180,-3.34510006,2.40002998,6.71848569,-2.16310454,-1,-0.9189371972854926
1.48072227e+03,4.49942111e+01,-1.90297645e-07,5.47345328,4.18497720,1.88944938,-3.34510005,2.49136090,6.72809277,-2.13417325,-1,-0.916711619518928
1.51879840e+03,4.49942037e+01,-1.94471452e-07,5.47551542,4.19033186,1.87977115,-3.34509910,2.58509313,6.73776452,-2.10508543,-1,-0.9144360836431757
1.55770682e+03,4.49941960e+01,-1.99043695e-07,5.47776057,4.19572116,1.87011512,-3.34509929,2.68628742,6.74749824,-2.07584891,-1,-0.9121108077924306
1.59745890e+03,4.49941878e+01,-2.04296421e-07,5.48015382,4.20114912,1.86045582,-3.34509923,2.79934748,6.75729461,-2.04645956,-1,-0.909735112463736
1.63807154e+03,4.49941793e+01,-2.09702595e-07,5.48266897,4.20661717,1.85077729,-3.34509924,2.91760189,6.76715019,-2.01693067,-1,-0.9073079876658899
1.67952261e+03,4.49941704e+01,-2.15065566e-07,5.48527176,4.21212346,1.84106612,-3.34509922,3.03843250,6.77705671,-1.98728652,-1,-0.9048307559495019
1.72182536e+03,4.49941611e+01,-2.20906080e-07,5.48792790,4.21766943,1.83130224,-3.34509964,3.16959984,6.78701261,-1.95752767,-1,-0.9023026254575643
1.76501006e+03,4.49941513e+01,-2.27310526e-07,5.49060707,4.22325709,1.82146651,-3.34509901,3.31302351,6.79702021,-1.92764827,-1,-0.8997217871703331
1.80909429e+03,4.49941410e+01,-2.33625014e-07,5.49328208,4.22888520,1.81154780,-3.34509912,3.45968704,6.80707411,-1.89766590,-1,-0.897087190457907
1.85408484e+03,4.49941302e+01,-2.39927575e-07,5.49592445,4.23455158,1.80153622,-3.34509941,3.61104522,6.81716748,-1.86759742,-1,-0.8943984295309214
1.89998768e+03,4.49941189e+01,-2.46756493e-07,5.49851093,4.24025560,1.79142142,-3.34509919,3.77567771,6.82730113,-1.83743664,-1,-0.8916551476055022
1.94683412e+03,4.49941070e+01,-2.53835816e-07,5.50102251,4.24599678,1.78119485,-3.34509953,3.95015782,6.83747456,-1.80718450,-1,-0.8888554735086003
1.99466659e+03,4.49940946e+01,-2.60557919e-07,5.50343814,4.25177254,1.77085114,-3.34509913,4.12566794,6.84768133,-1.77686002,-1,-0.8859968715049082
2.04350700e+03,4.49940815e+01,-2.67400425e-07,5.50574056,4.25758018,1.76038708,-3.34509968,4.31014062,6.85791893,-1.74646820,-1,-0.8830780321916312
2.09344244e+03,4.49940678e+01,-2.74801197e-07,5.50791405,4.26342072,1.74979274,-3.34509975,4.51198231,6.86819124,-1.71599680,-1,-0.8800937508271263
2.14446510e+03,4.49940534e+01,-2.81949678e-07,5.50995464,4.26928952,1.73907543,-3.34509943,4.71847063,6.87849189,-1.68545927,-1,-0.8770444941588066
2.19657407e+03,4.49940384e+01,-2.88800276e-07,5.51185785,4.27518171,1.72824266,-3.34509962,4.92901889,6.88881607,-1.65487067,-1,-0.8739303165708139
2.24979284e+03,4.49940227e+01,-2.95969215e-07,5.51362353,4.28109569,1.71729754,-3.34509955,5.15463950,6.89916415,-1.62422676,-1,-0.8707498142351405
2.30415985e+03,4.49940062e+01,-3.03248876e-07,5.51525322,4.28702992,1.70624392,-3.34509934,5.39251229,6.90953592,-1.59352570,-1,-0.8675006898700232
2.35972971e+03,4.49939890e+01,-3.10064343e-07,5.51674377,4.29298036,1.69508832,-3.34509973,5.63300287,6.91992753,-1.56277799,-1,-0.8641796798293355
2.41661327e+03,4.49939710e+01,-3.16903232e-07,5.51809022,4.29894488,1.68383251,-3.34509938,5.88576985,6.93033826,-1.53198314,-1,-0.8607801594074729
2.47483595e+03,4.49939522e+01,-3.24061759e-07,5.51930397,4.30492257,1.67248399,-3.34509943,6.15705984,6.94076969,-1.50113473,-1,-0.8573006094342366
2.53437319e+03,4.49939325e+01,-3.30874417e-07,5.52039703,4.31090932,1.66105703,-3.34509935,6.43432109,6.95121769,-1.47024287,-1,-0.8537424976838233
2.59526340e+03,4.49939120e+01,-3.37464841e-07,5.52137477,4.31690188,1.64956078,-3.34509949,6.72036718,6.96167892,-1.43931742,-1,-0.8501035286673533
2.65752551e+03,4.49938906e+01,-3.44328357e-07,5.52224837,4.32289980,1.63800174,-3.34509964,7.02572515,6.97215553,-1.40834692,-1,-0.8463825710751549
2.72126805e+03,4.49938683e+01,-3.50868367e-07,5.52302070,4.32890049,1.62638653,-3.34509968,7.33982454,6.98264591,-1.37733882,-1,-0.8425731388513031
2.78665113e+03,4.49938449e+01,-3.57441230e-07,5.52369429,4.33490240,1.61471949,-3.34509972,7.67221784,6.99314959,-1.34629188,-1,-0.8386656633750094
2.85357464e+03,4.49938206e+01,-3.64121787e-07,5.52428775,4.34090486,1.60301130,-3.34509982,8.02423144,7.00366738,-1.31520226,-1,-0.8346661274994817
2.92207132e+03,4.49937952e+01,-3.70529709e-07,5.52480815,4.34690524,1.59127074,-3.34510006,8.38843852,7.01419619,-1.28407974,-1,-0.8305725745908767
2.99216466e+03,4.49937688e+01,-3.77159064e-07,5.52526429,4.35290380,1.57950169,-3.34510017,8.77692325,7.02473672,-1.25292144,-1,-0.8263836008211871
