star_age,star_mass,star_mdot,log_L,log_Teff,log_R,log_surf_z,v_wind_Km_per_s,log_center_T,log_center_Rho,phase,x
7.45993099e+01,5.49992534e+01,-1.44043954e-05,5.56444394,3.88128923,2.54232066,-3.34509849,2.25677190e+01,6.23461480,-3.68903761,-1,-1.0
7.70490833e+01,5.49992163e+01,-1.45487753e-05,5.56746860,3.88223662,2.54193822,-3.34509849,2.34112273e+01,6.23673505,-3.68278313,-1,-0.9998284820884606
7.94988567e+01,5.49991792e+01,-1.46931553e-05,5.57049327,3.88318400,2.54155578,-3.34509849,2.42547355e+01,6.23885529,-3.67652864,-1,-0.9996569641769214
8.19486301e+01,5.49991420e+01,-1.48375352e-05,5.57351793,3.88413139,2.54117334,-3.34509849,2.50982438e+01,6.24097554,-3.67027415,-1,-0.999485446265382
8.43984036e+01,5.49991049e+01,-1.49819152e-05,5.57654260,3.88507877,2.54079090,-3.34509849,2.59417520e+01,6.24309579,-3.66401966,-1,-0.9993139283468414
8.68481770e+01,5.49990678e+01,-1.51262951e-05,5.57956726,3.88602616,2.54040847,-3.34509849,2.67852603e+01,6.24521603,-3.65776517,-1,-0.999142410435302
8.96385567e+01,5.49990239e+01,-1.52594502e-05,5.58244248,3.88717097,2.53955645,-3.34509849,2.78265739e+01,6.24762265,-3.65068801,-1,-0.9989470453870304
9.25015710e+01,5.49989785e+01,-1.53902116e-05,5.58528584,3.88835789,2.53860430,-3.34509849,2.89100697e+01,6.25009034,-3.64343542,-1,-0.9987465949153895
9.53645853e+01,5.49989331e+01,-1.55209729e-05,5.58812919,3.88954480,2.53765215,-3.34509849,2.99935655e+01,6.25255803,-3.63618283,-1,-0.9985461444437488
9.82275995e+01,5.49988878e+01,-1.56517343e-05,5.59097255,3.89073171,2.53670000,-3.34509849,3.10770613e+01,6.25502572,-3.62893023,-1,-0.9983456939791093
1.01090614e+02,5.49988424e+01,-1.57824957e-05,5.59381590,3.89191863,2.53574785,-3.34509849,3.21605570e+01,6.25749340,-3.62167764,-1,-0.9981452434934657
1.04167463e+02,5.49987926e+01,-1.59223372e-05,5.59660069,3.89323208,2.53451334,-3.34509849,3.33968350e+01,6.26013463,-3.61392525,-1,-0.9979298216448156
1.07449943e+02,5.49987387e+01,-1.60709106e-05,5.59932915,3.89466720,2.53300732,-3.34509849,3.47800329e+01,6.26294273,-3.60569224,-1,-0.9977000027912557
1.10732423e+02,5.49986847e+01,-1.62194840e-05,5.60205762,3.89610233,2.53150131,-3.34509849,3.61632308e+01,6.26575083,-3.59745924,-1,-0.9974701839376958
1.14014902e+02,5.49986307e+01,-1.63680574e-05,5.60478608,3.89753745,2.52999529,-3.34509849,3.75464287e+01,6.26855894,-3.58922623,-1,-0.9972403651541497
1.17470179e+02,5.49985732e+01,-1.64990051e-05,5.60745068,3.89908250,2.52823750,-3.34509849,3.89859231e+01,6.27150289,-3.58060228,-1,-0.9969984481283424
1.21123091e+02,5.49985118e+01,-1.66097935e-05,5.61004224,3.90075326,2.52619175,-3.34509849,4.04898062e+01,6.27460222,-3.57153120,-1,-0.9967426939278613
1.24776004e+02,5.49984503e+01,-1.67205819e-05,5.61263379,3.90242402,2.52414600,-3.34509849,4.19936893e+01,6.27770154,-3.56246011,-1,-0.9964869396573665
1.28456916e+02,5.49983883e+01,-1.68288566e-05,5.61521327,3.90411309,2.52205761,-3.34509849,4.35038016e+01,6.28082183,-3.55332885,-1,-0.9962292250708663
1.32452284e+02,5.49983202e+01,-1.69089015e-05,5.61765724,3.90600768,2.51949041,-3.34509849,4.50838721e+01,6.28417745,-3.54352178,-1,-0.9959494942291521
1.36447652e+02,5.49982520e+01,-1.69889464e-05,5.62010122,3.90790228,2.51692321,-3.34509849,4.66639426e+01,6.28753307,-3.53371472,-1,-0.995669763387438
1.40487567e+02,5.49981830e+01,-1.70649813e-05,5.62252431,3.90982622,2.51428688,-3.34509849,4.82487701e+01,6.29092053,-3.52381630,-1,-0.9953869136415814
1.44803643e+02,5.49981088e+01,-1.71161564e-05,5.62481800,3.91193209,2.51122197,-3.34509849,4.98630878e+01,6.29450534,-3.51335161,-1,-0.9950847288184607
1.49119719e+02,5.49980346e+01,-1.71673314e-05,5.62711169,3.91403797,2.50815707,-3.34509849,5.14774055e+01,6.29809016,-3.50288692,-1,-0.9947825439953398
1.53597648e+02,5.49979575e+01,-1.72035677e-05,5.62932471,3.91624977,2.50483998,-3.34509849,5.30921523e+01,6.30178547,-3.49210456,-1,-0.9944690272308501
1.58215837e+02,5.49978779e+01,-1.72268583e-05,5.63146783,3.91855336,2.50130435,-3.34509849,5.47072711e+01,6.30557654,-3.48104691,-1,-0.9941456903326806
1.62890117e+02,5.49977973e+01,-1.72449991e-05,5.63358179,3.92089300,2.49768204,-3.34509849,5.63181771e+01,6.30940411,-3.46988449,-1,-0.9938184262912187
1.67795011e+02,5.49977127e+01,-1.72419669e-05,5.63557581,3.92338086,2.49370334,-3.34509849,5.79117625e+01,6.31338177,-3.45829128,-1,-0.9934750160904215
1.72716880e+02,5.49976279e+01,-1.72374151e-05,5.63756076,3.92587932,2.48969890,-3.34509849,5.95028611e+01,6.31736992,-3.44666796,-1,-0.9931304174056003
1.77895935e+02,5.49975389e+01,-1.72098393e-05,5.63940823,3.92853852,2.48530423,-3.34509849,6.10562790e+01,6.32151688,-3.43458829,-1,-0.9927678121551118
1.83099392e+02,5.49974495e+01,-1.71801617e-05,5.64124248,3.93121256,2.48087327,-3.34509849,6.26036309e+01,6.32567818,-3.42246727,-1,-0.9924034984282076
1.88542256e+02,5.49973565e+01,-1.71298635e-05,5.64294703,3.93403220,2.47608628,-3.34509849,6.40914682e+01,6.32998006,-3.40994052,-1,-0.9920224229107445
1.94050632e+02,5.49972625e+01,-1.70741890e-05,5.64461511,3.93688966,2.47120539,-3.34509849,6.55558253e+01,6.33431749,-3.39731247,-1,-0.9916367606501071
1.99749558e+02,5.49971658e+01,-1.70028771e-05,5.64617713,3.93985714,2.46605143,-3.34509849,6.69518874e+01,6.33875833,-3.38438979,-1,-0.9912377572624725
2.05580244e+02,5.49970673e+01,-1.69212910e-05,5.64766789,3.94289776,2.46071557,-3.34509849,6.82876857e+01,6.34326906,-3.37126762,-1,-0.9908295288583429
2.11528525e+02,5.49969673e+01,-1.68305352e-05,5.64909505,3.94600365,2.45521738,-3.34509849,6.95696993e+01,6.34784218,-3.35796743,-1,-0.9904130671830021
2.17694868e+02,5.49968645e+01,-1.67240702e-05,5.65040660,3.94922377,2.44943292,-3.34509848,7.07313405e+01,6.35252466,-3.34435597,-1,-0.9899813381613731
2.23967577e+02,5.49967604e+01,-1.66104047e-05,5.65166282,3.95249703,2.44351450,-3.34509848,7.18295471e+01,6.35725844,-3.33059833,-1,-0.9895421620533404
2.30401337e+02,5.49966545e+01,-1.64860684e-05,5.65283578,3.95584947,2.43739611,-3.34509849,7.28293379e+01,6.36206885,-3.31662218,-1,-0.9890917101549954
2.37034659e+02,5.49965464e+01,-1.63496896e-05,5.65390880,3.95929345,2.43104466,-3.34509849,7.37078653e+01,6.36696970,-3.30239438,-1,-0.9886272861654103
2.43811096e+02,5.49964367e+01,-1.62156537e-05,5.65490806,3.96279746,2.42453626,-3.34509850,7.45505314e+01,6.37192998,-3.28800140,-1,-0.9881528421527854
2.50745343e+02,5.49963254e+01,-1.60887319e-05,5.65582515,3.96636535,2.41785902,-3.34509850,7.53747427e+01,6.37695354,-3.27343261,-1,-0.9876673492645298
2.57910193e+02,5.49962118e+01,-1.59528156e-05,5.65663545,3.97001702,2.41096083,-3.34509851,7.60889925e+01,6.38206242,-3.25863113,-1,-0.9871657109870906
2.65157783e+02,5.49960973e+01,-1.58136721e-05,5.65740744,3.97369876,2.40398336,-3.34509851,7.67637881e+01,6.38720192,-3.24374616,-1,-0.9866582797689653
2.72662328e+02,5.49959809e+01,-1.56122615e-05,5.65808229,3.97747348,2.39677134,-3.34509851,7.70611548e+01,6.39244357,-3.22858550,-1,-0.9861328581583572
2.80299154e+02,5.49958635e+01,-1.54003555e-05,5.65870378,3.98129249,2.38944406,-3.34509851,7.72707386e+01,6.39773444,-3.21329370,-1,-0.9855981750540712
2.88129783e+02,5.49957446e+01,-1.51943900e-05,5.65924373,3.98517284,2.38195334,-3.34509851,7.74570304e+01,6.40309413,-3.19782039,-1,-0.985049923067941
2.96197528e+02,5.49956241e+01,-1.49889293e-05,5.65968619,3.98911943,2.37428138,-3.34509851,7.75925734e+01,6.40853126,-3.18214718,-1,-0.9844850696928363
3.04447255e+02,5.49955025e+01,-1.47820210e-05,5.66005675,3.99311178,2.36648196,-3.34509851,7.76858888e+01,6.41402339,-3.16633794,-1,-0.9839074750688562
3.12902680e+02,5.49953794e+01,-1.45867990e-05,5.66034708,3.99714957,2.35855156,-3.34509852,7.78090988e+01,6.41957055,-3.15039850,-1,-0.9833154787490426
3.21524511e+02,5.49952552e+01,-1.44099049e-05,5.66057291,4.00122048,2.35052265,-3.34509852,7.80074882e+01,6.42515801,-3.13436746,-1,-0.9827118317150905
3.30475741e+02,5.49951325e+01,-1.39789749e-05,5.66068338,4.00534934,2.34232016,-3.34509853,7.67643802e+01,6.43081630,-3.11818080,-1,-0.9820851222099142
3.39544367e+02,5.49950160e+01,-1.30841654e-05,5.66075669,4.00950029,2.33405492,-3.34509853,7.28654513e+01,6.43650318,-3.10192763,-1,-0.9814501933662705
3.48838627e+02,5.49949119e+01,-1.12479161e-05,5.66075909,4.01369388,2.32566894,-3.34509853,6.35759411e+01,6.44224542,-3.08554518,-1,-0.9807994670319479
3.58426253e+02,5.49948233e+01,-9.59998581e-06,5.66066073,4.01793188,2.31714376,-3.34509853,5.50008210e+01,6.44804634,-3.06903120,-1,-0.9801282010331661
3.68239383e+02,5.49947464e+01,-8.03362715e-06,5.66048714,4.02219800,2.30852473,-3.34509853,4.66546645e+01,6.45388454,-3.05243276,-1,-0.9794411466454975
3.78315016e+02,5.49946818e+01,-6.67406465e-06,5.66022824,4.02648836,2.29981455,-3.34509854,3.92737759e+01,6.45975398,-3.03576237,-1,-0.9787357134288595
3.88616399e+02,5.49946275e+01,-5.44651045e-06,5.65989983,4.03079548,2.29103611,-3.34509854,3.24835797e+01,6.46564471,-3.01903644,-1,-0.9780144745999431
3.99212613e+02,5.49945867e+01,-4.23586739e-06,5.65948647,4.03512190,2.28217658,-3.34509856,2.55824975e+01,6.47156016,-3.00223391,-1,-0.9772725935363705
4.10073604e+02,5.49945607e+01,-2.73083977e-06,5.65899484,4.03946917,2.27323623,-3.34509856,1.66815366e+01,6.47750218,-2.98532941,-1,-0.9765121744324783
4.21197190e+02,5.49945480e+01,-1.23991538e-06,5.65842671,4.04383356,2.26422338,-3.34509856,7.66816817,6.48346679,-2.96832074,-1,-0.975733370058348
4.32609738e+02,5.49945449e+01,-2.68550428e-07,5.65777655,4.04821195,2.25514152,-3.34509857,1.69095222,6.48945127,-2.95119239,-1,-0.974934334360474
4.44327516e+02,5.49945417e+01,-2.70634936e-07,5.65704456,4.05259967,2.24600009,-3.34509858,1.72838343,6.49545119,-2.93393231,-1,-0.9741139283545793
4.56378851e+02,5.49945384e+01,-2.72302168e-07,5.65623518,4.05698872,2.23681729,-3.34509859,1.76477688,6.50145765,-2.91653293,-1,-0.9732701687601366
4.68803627e+02,5.49945350e+01,-2.73901784e-07,5.65535194,4.06137761,2.22759791,-3.34509860,1.80224409,6.50747667,-2.89894567,-1,-0.9724002631472894
4.81454890e+02,5.49945315e+01,-2.75642930e-07,5.65442517,4.06577096,2.21834781,-3.34509860,1.84152713,6.51351366,-2.88121983,-1,-0.9715145003220035
4.94440101e+02,5.49945279e+01,-2.77686434e-07,5.65343627,4.07017419,2.20904690,-3.34509860,1.88404266,6.51958584,-2.86326948,-1,-0.970605356532779
5.07802914e+02,5.49945242e+01,-2.79460555e-07,5.65238864,4.07458367,2.19970413,-3.34509861,1.92584059,6.52570088,-2.84506376,-1,-0.969669775397785
5.21534065e+02,5.49945203e+01,-2.81089332e-07,5.65129667,4.07899690,2.19033169,-3.34509862,1.96740101,6.53186461,-2.82660549,-1,-0.9687084055247384
5.35659064e+02,5.49945163e+01,-2.82431522e-07,5.65017477,4.08340700,2.18095052,-3.34509862,2.00770980,6.53808128,-2.80790432,-1,-0.9677194608619485
5.50150797e+02,5.49945122e+01,-2.83702315e-07,5.64903504,4.08781390,2.17156687,-3.34509863,2.04828179,6.54435393,-2.78898312,-1,-0.9667048397632194
5.64917686e+02,5.49945080e+01,-2.84994455e-07,5.64788344,4.09221960,2.16217966,-3.34509864,2.08963819,6.55067177,-2.76989446,-1,-0.9656709539510815
5.80167267e+02,5.49945036e+01,-2.86700242e-07,5.64670903,4.09663553,2.15276061,-3.34509865,2.13552728,6.55708901,-2.75047892,-1,-0.964603273044362
5.95815279e+02,5.49944991e+01,-2.88263407e-07,5.64553091,4.10105601,2.14333059,-3.34509865,2.18174123,6.56358761,-2.73080854,-1,-0.963507696474716
6.11863919e+02,5.49944945e+01,-2.89756843e-07,5.64435829,4.10547957,2.13389717,-3.34509865,2.22880531,6.57016653,-2.71089137,-1,-0.9623840704218548
6.28363724e+02,5.49944897e+01,-2.91089591e-07,5.64320801,4.10990090,2.12447937,-3.34509866,2.27596358,6.57682851,-2.69072224,-1,-0.9612288565990557
6.45271586e+02,5.49944847e+01,-2.92346624e-07,5.64208883,4.11431876,2.11508405,-3.34509868,2.32356437,6.58356285,-2.67033469,-1,-0.9600450731606223
6.62592451e+02,5.49944796e+01,-2.93641145e-07,5.64100658,4.11873383,2.10571278,-3.34509869,2.37240017,6.59037051,-2.64972600,-1,-0.9588323738183671
6.80436952e+02,5.49944744e+01,-2.95443737e-07,5.63996029,4.12315842,2.09634047,-3.34509869,2.42669211,6.59728291,-2.62880535,-1,-0.95758301273706
6.98714117e+02,5.49944689e+01,-2.97282663e-07,5.63895617,4.12758839,2.08697845,-3.34509869,2.48227233,6.60427786,-2.60764004,-1,-0.9563033592108771
7.17464738e+02,5.49944633e+01,-2.99109856e-07,5.63800581,4.13202178,2.07763650,-3.34509870,2.53879987,6.61135716,-2.58622565,-1,-0.9549905572374435
7.36730017e+02,5.49944575e+01,-3.00864886e-07,5.63713162,4.13645578,2.06833140,-3.34509872,2.59573965,6.61852289,-2.56455689,-1,-0.9536417221087324
7.56446793e+02,5.49944515e+01,-3.02507667e-07,5.63633905,4.14088854,2.05906960,-3.34509877,2.65254942,6.62576138,-2.54267417,-1,-0.9522612759655061
7.76790372e+02,5.49944453e+01,-3.04301288e-07,5.63566168,4.14531837,2.04987125,-3.34509881,2.71183291,6.63309022,-2.52052487,-1,-0.9508369449709273
7.97600455e+02,5.49944390e+01,-3.06711022e-07,5.63506179,4.14975859,2.04069087,-3.34509883,2.77790813,6.64050059,-2.49813435,-1,-0.9493799522649409
8.18921446e+02,5.49944323e+01,-3.09433596e-07,5.63455814,4.15421003,2.03153616,-3.34509884,2.84821682,6.64799977,-2.47548255,-1,-0.9478871889553758
8.40788355e+02,5.49944255e+01,-3.12201171e-07,5.63416870,4.15867188,2.02241775,-3.34509886,2.92047466,6.65558876,-2.45256927,-1,-0.9463562038595706
8.63234278e+02,5.49944184e+01,-3.15007869e-07,5.63390963,4.16314095,2.01335007,-3.34509892,2.99456184,6.66326170,-2.42941456,-1,-0.9447846798012508
8.86218882e+02,5.49944111e+01,-3.17585862e-07,5.63379248,4.16761455,2.00434429,-3.34509903,3.06762406,6.67100756,-2.40604980,-1,-0.9431754406464629
9.09965574e+02,5.49944035e+01,-3.20464268e-07,5.63388280,4.17209845,1.99542165,-3.34509917,3.14509538,6.67885398,-2.38239688,-1,-0.9415128448252301
9.34136679e+02,5.49943957e+01,-3.24125329e-07,5.63407762,4.17659762,1.98652072,-3.34509926,3.23146864,6.68676755,-2.35855091,-1,-0.9398205342428728
9.58896155e+02,5.49943875e+01,-3.28616060e-07,5.63441750,4.18111804,1.97764982,-3.34509931,3.32774805,6.69477106,-2.33444682,-1,-0.9380870295790017
9.84275156e+02,5.49943791e+01,-3.33179326e-07,5.63491670,4.18565777,1.96881997,-3.34509941,3.42660568,6.70285787,-2.31010536,-1,-0.9363101496241153
1.01028308e+03,5.49943703e+01,-3.37903437e-07,5.63558974,4.19021915,1.96003372,-3.34509957,3.52890487,6.71102918,-2.28552582,-1,-0.9344892363886491
1.03699229e+03,5.49943611e+01,-3.42161498e-07,5.63647358,4.19480112,1.95131170,-3.34509994,3.62805255,6.71928119,-2.26072190,-1,-0.9326192234649784
1.06439910e+03,5.49943516e+01,-3.46810597e-07,5.63755525,4.19940750,1.94263978,-3.34510020,3.73311690,6.72761043,-2.23570569,-1,-0.9307003689239198
1.09227763e+03,5.49943417e+01,-3.52442831e-07,5.63875474,4.20403575,1.93398302,-3.34510028,3.85044259,6.73599841,-2.21052591,-1,-0.9287484874795437
1.12081218e+03,5.49943314e+01,-3.59709991e-07,5.64010534,4.20869875,1.92533232,-3.34510008,3.98815121,6.74447216,-2.18510633,-1,-0.9267506755910182
1.15001854e+03,5.49943207e+01,-3.66950882e-07,5.64161256,4.21339693,1.91668958,-3.34510000,4.12852583,6.75302671,-2.15946368,-1,-0.9247058277406557
1.17990930e+03,5.49943095e+01,-3.74409997e-07,5.64327280,4.21813168,1.90805020,-3.34509997,4.27437701,6.76165927,-2.13360820,-1,-0.9226130624548857
1.21056439e+03,5.49942978e+01,-3.80933976e-07,5.64509681,4.22290377,1.89941802,-3.34509899,4.41261938,6.77036228,-2.10756585,-1,-0.9204667835317619
1.24191848e+03,5.49942856e+01,-3.87875970e-07,5.64703677,4.22771216,1.89077122,-3.34509970,4.55874621,6.77912576,-2.08136604,-1,-0.9182715649719493
1.27379287e+03,5.49942729e+01,-3.96120982e-07,5.64904642,4.23255110,1.88209816,-3.34510032,4.72310352,6.78794039,-2.05502912,-1,-0.9160399182390762
1.30637999e+03,5.49942597e+01,-4.06631414e-07,5.65113261,4.23743532,1.87337282,-3.34509960,4.91890688,6.79683005,-2.02848784,-1,-0.9137583705802271
1.33968989e+03,5.49942458e+01,-4.16828219e-07,5.65328598,4.24236434,1.86459147,-3.34509882,5.11635938,6.80578816,-2.00176212,-1,-0.9114262183568488
1.37371847e+03,5.49942313e+01,-4.27057256e-07,5.65549119,4.24733907,1.85574460,-3.34509882,5.31997302,6.81481289,-1.97486174,-1,-0.9090437486254654
1.40848469e+03,5.49942160e+01,-4.37339487e-07,5.65772377,4.25235708,1.84682488,-3.34509889,5.53055211,6.82389472,-1.94780869,-1,-0.906609633924687
1.44398669e+03,5.49942002e+01,-4.46271646e-07,5.65995737,4.25741172,1.83783239,-3.34509907,5.73045396,6.83301507,-1.92066382,-1,-0.9041240044801562
1.48038050e+03,5.49941835e+01,-4.55536867e-07,5.66215645,4.26251160,1.82873218,-3.34509916,5.94296601,6.84218338,-1.89339725,-1,-0.901575936040782
1.51738726e+03,5.49941662e+01,-4.67229193e-07,5.66432298,4.26764629,1.81954606,-3.34509908,6.19434430,6.85139615,-1.86601226,-1,-0.8989849526510382
1.55517062e+03,5.49941480e+01,-4.80180554e-07,5.66644245,4.27282393,1.81025052,-3.34509898,6.47190296,6.86066221,-1.83848475,-1,-0.8963395965547813
1.59375418e+03,5.49941290e+01,-4.92510479e-07,5.66850294,4.27804270,1.80084321,-3.34509894,6.75194994,6.86997511,-1.81083065,-1,-0.8936382154266527
1.63315066e+03,5.49941092e+01,-5.04604124e-07,5.67049016,4.28330028,1.79132167,-3.34509889,7.04010733,6.87932936,-1.78306321,-1,-0.8908799186912894
1.67342929e+03,5.49940884e+01,-5.15533086e-07,5.67237894,4.28859387,1.78167889,-3.34509895,7.32425156,6.88871770,-1.75520517,-1,-0.8880598592942592
1.71457940e+03,5.49940667e+01,-5.25664432e-07,5.67415596,4.29391717,1.77192079,-3.34509926,7.60921708,6.89813170,-1.72728210,-1,-0.8851787842826632
1.75648943e+03,5.49940442e+01,-5.36615933e-07,5.67583528,4.29926599,1.76206282,-3.34509962,7.91709707,6.90757057,-1.69929353,-1,-0.8822445043945113
1.79934876e+03,5.49940206e+01,-5.50661172e-07,5.67740562,4.30465049,1.75207898,-3.34509922,8.28579600,6.91705299,-1.67118071,-1,-0.8792437604189363
1.84315542e+03,5.49939959e+01,-5.63549792e-07,5.67886784,4.31006543,1.74198021,-3.34509906,8.65375605,6.92657018,-1.64296937,-1,-0.8761766902830974
1.88791830e+03,5.49939701e+01,-5.75883945e-07,5.68021843,4.31550663,1.73177310,-3.34509912,9.03010745,6.93611695,-1.61467628,-1,-0.8730426715644336
1.93369397e+03,5.49939432e+01,-5.87284103e-07,5.68144806,4.32096945,1.72146228,-3.34509923,9.40956131,6.94568767,-1.58631358,-1,-0.8698377435830488
1.98047634e+03,5.49939153e+01,-5.97290523e-07,5.68255686,4.32644648,1.71106263,-3.34509942,9.78407059,6.95527313,-1.55791014,-1,-0.8665623327229018
2.02820075e+03,5.49938863e+01,-6.07522045e-07,5.68355982,4.33193514,1.70058678,-3.34509963,1.01786304e+01,6.96487296,-1.52946561,-1,-0.8632209660754211
2.07706286e+03,5.49938559e+01,-6.21145194e-07,5.68446076,4.33744571,1.69001611,-3.34509972,1.06528909e+01,6.97450897,-1.50091183,-1,-0.8597999447431608
2.12705224e+03,5.49938242e+01,-6.33513588e-07,5.68526684,4.34297264,1.67936530,-3.34509984,1.11301537e+01,6.98417261,-1.47227638,-1,-0.856299998969913
2.17820729e+03,5.49937912e+01,-6.44910251e-07,5.68597737,4.34851094,1.66864396,-3.34510002,1.16153456e+01,6.99385745,-1.44358504,-1,-0.8527184402262804
2.23050396e+03,5.49937618e+01,-5.80612619e-07,5.68659752,4.35405249,1.65787093,-3.34510030,1.06881454e+01,7.00355157,-1.41486268,-1,-0.8490569523438255
2.28400286e+03,5.49937606e+01,-5.62100001e-08,5.68713840,4.35959659,1.64705317,-3.34510067,1.04644799,7.01325598,-1.38610114,-1,-0.8453112917869552
2.33874951e+03,5.49937593e+01,-2.34520795e-08,5.68761050,4.36515243,1.63617754,-3.34509987,4.56772813e-01,7.02299094,-1.35724762,-1,-0.8414782715281128
2.39471036e+03,5.49937579e+01,-2.56325774e-08,5.68802200,4.37071583,1.62525649,-3.34509941,5.12928730e-01,7.03274846,-1.32832250,-1,-0.8375602405298317
2.45208647e+03,5.49937563e+01,-2.78047156e-08,5.68836733,4.37628361,1.61429360,-3.34510062,5.72198456e-01,7.04252621,-1.29933696,-1,-0.8335431218202198
2.51077099e+03,5.49937546e+01,-2.97112879e-08,5.68865638,4.38184752,1.60331030,-3.34510090,6.28878410e-01,7.05231059,-1.27032538,-1,-0.8294343963723534
2.57094827e+03,5.49937526e+01,-3.17607950e-08,5.68889482,4.38740703,1.59231050,-3.34510014,6.91864009e-01,7.06210364,-1.24128167,-1,-0.8252211571447104
