star_age,star_mass,star_mdot,log_L,log_Teff,log_R,log_surf_z,v_wind_Km_per_s,log_center_T,log_center_Rho,phase,x
5.97554748e+01,5.99984182e+01,-2.57176291e-05,5.72988447,3.92539438,2.53683064,-3.34509848,7.66614235e+01,6.32127657,-3.46761193,-1,-1.0
6.17156293e+01,5.99983690e+01,-2.55694184e-05,5.72996810,3.92668447,2.53429226,-3.34509848,7.73146272e+01,6.32300819,-3.46260258,-1,-0.9998538626368063
6.36757839e+01,5.99983199e+01,-2.54212078e-05,5.73005172,3.92797456,2.53175389,-3.34509848,7.79678309e+01,6.32473981,-3.45759324,-1,-0.9997077252661573
6.56359384e+01,5.99982707e+01,-2.52729971e-05,5.73013534,3.92926465,2.52921551,-3.34509848,7.86210346e+01,6.32647143,-3.45258389,-1,-0.9995615879029636
6.75960930e+01,5.99982216e+01,-2.51247865e-05,5.73021896,3.93055475,2.52667714,-3.34509849,7.92742382e+01,6.32820305,-3.44757454,-1,-0.9994154505323145
6.97180681e+01,5.99981691e+01,-2.49830520e-05,5.73033525,3.93193425,2.52397627,-3.34509849,7.99558400e+01,6.33005864,-3.44220604,-1,-0.9992572487957286
7.19271967e+01,5.99981148e+01,-2.48448054e-05,5.73046914,3.93336191,2.52118790,-3.34509849,8.06527365e+01,6.33198099,-3.43664411,-1,-0.9990925494168992
7.41363252e+01,5.99980605e+01,-2.47065589e-05,5.73060303,3.93478957,2.51839952,-3.34509849,8.13496329e+01,6.33390334,-3.43108218,-1,-0.9989278500455252
7.63519607e+01,5.99980061e+01,-2.45683536e-05,5.73073800,3.93622076,2.51560463,-3.34509849,8.20466511e+01,6.33583050,-3.42550633,-1,-0.9987626655512578
7.87978313e+01,5.99979471e+01,-2.44316082e-05,5.73091117,3.93777675,2.51257923,-3.34509849,8.27479770e+01,6.33792800,-3.41943802,-1,-0.9985803161088047
8.12437020e+01,5.99978881e+01,-2.42948629e-05,5.73108433,3.93933275,2.50955382,-3.34509849,8.34493029e+01,6.34002550,-3.41336971,-1,-0.9983979666588962
8.36895726e+01,5.99978290e+01,-2.41581175e-05,5.73125750,3.94088875,2.50652841,-3.34509849,8.41506287e+01,6.34212299,-3.40730141,-1,-0.9982156172164431
8.63460031e+01,5.99977658e+01,-2.40379029e-05,5.73145538,3.94255358,2.50329769,-3.34509849,8.48974490e+01,6.34436651,-3.40081113,-1,-0.9980175696907112
8.90470840e+01,5.99977017e+01,-2.39211937e-05,5.73165851,3.94424149,2.50002343,-3.34509848,8.56539165e+01,6.34664099,-3.39423138,-1,-0.997816193298953
9.17481648e+01,5.99976377e+01,-2.38044845e-05,5.73186163,3.94592940,2.49674917,-3.34509848,8.64103841e+01,6.34891546,-3.38765163,-1,-0.99761481691465
9.45541164e+01,5.99975716e+01,-2.36853075e-05,5.73207295,3.94767058,2.49337247,-3.34509848,8.71456653e+01,6.35126066,-3.38086802,-1,-0.9974056219924778
9.75589821e+01,5.99975017e+01,-2.35614497e-05,5.73229983,3.94951280,2.48980146,-3.34509849,8.78407613e+01,6.35373997,-3.37369772,-1,-0.9971815972280273
1.00563848e+02,5.99974317e+01,-2.34375918e-05,5.73252670,3.95135502,2.48623046,-3.34509849,8.85358572e+01,6.35621929,-3.36652742,-1,-0.996957572448666
1.03568714e+02,5.99973618e+01,-2.33137340e-05,5.73275358,3.95319725,2.48265945,-3.34509849,8.92309532e+01,6.35869861,-3.35935713,-1,-0.9967335476618493
1.06753700e+02,5.99972888e+01,-2.31536537e-05,5.73298807,3.95513261,2.47890596,-3.34509849,8.97552635e+01,6.36129908,-3.35183715,-1,-0.9964960942081298
1.10063038e+02,5.99972136e+01,-2.29685659e-05,5.73322781,3.95713229,2.47502648,-3.34509849,9.01616652e+01,6.36398321,-3.34407577,-1,-0.9962493698151105
1.13372377e+02,5.99971384e+01,-2.27834781e-05,5.73346755,3.95913197,2.47114700,-3.34509849,9.05680668e+01,6.36666733,-3.33631439,-1,-0.9960026453475371
1.16869968e+02,5.99970600e+01,-2.26043155e-05,5.73370412,3.96122480,2.46707961,-3.34509849,9.09594300e+01,6.36947179,-3.32820755,-1,-0.995741885939914
1.20445539e+02,5.99969803e+01,-2.24276072e-05,5.73393937,3.96335623,2.46293438,-3.34509849,9.13445637e+01,6.37232610,-3.31995761,-1,-0.9954753128111877
1.24078758e+02,5.99968996e+01,-2.22508068e-05,5.73417199,3.96551518,2.45873279,-3.34509849,9.17181469e+01,6.37521634,-3.31160466,-1,-0.9952044417933342
1.27904535e+02,5.99968159e+01,-2.20736982e-05,5.73439584,3.96776608,2.45434291,-3.34509849,9.20531481e+01,6.37822663,-3.30290763,-1,-0.9949192148058967
1.31730312e+02,5.99967321e+01,-2.18965896e-05,5.73461969,3.97001698,2.44995303,-3.34509849,9.23881494e+01,6.38123692,-3.29421059,-1,-0.9946339878184592
1.35796107e+02,5.99966446e+01,-2.17156096e-05,5.73482516,3.97237694,2.44533586,-3.34509849,9.26636338e+01,6.38438854,-3.28511114,-1,-0.9943308665284865
1.39865489e+02,5.99965571e+01,-2.15345716e-05,5.73503036,3.97473852,2.44071530,-3.34509849,9.29382290e+01,6.38754227,-3.27600568,-1,-0.9940274778133072
1.44171403e+02,5.99964658e+01,-2.13752420e-05,5.73520966,3.97719865,2.43588468,-3.34509850,9.32698528e+01,6.39082436,-3.26653796,-1,-0.9937064546908448
1.48505768e+02,5.99963742e+01,-2.12185235e-05,5.73538584,3.97967064,2.43102879,-3.34509850,9.36083362e+01,6.39412190,-3.25702667,-1,-0.9933833104324616
1.53009013e+02,5.99962800e+01,-2.10573442e-05,5.73554230,3.98220905,2.42603020,-3.34509850,9.39058951e+01,6.39750659,-3.24727223,-1,-0.9930475754941621
1.57659056e+02,5.99961837e+01,-2.08922873e-05,5.73568161,3.98480520,2.42090757,-3.34509850,9.41678810e+01,6.40096704,-3.23730643,-1,-0.992700896177426
1.62309098e+02,5.99960874e+01,-2.07272304e-05,5.73582093,3.98740134,2.41578494,-3.34509850,9.44298669e+01,6.40442749,-3.22734064,-1,-0.9923542169352438
1.67242976e+02,5.99959875e+01,-2.04923014e-05,5.73592360,3.99010989,2.41041917,-3.34509850,9.43415616e+01,6.40803421,-3.21696947,-1,-0.9919863765832516
1.72209143e+02,5.99958872e+01,-2.02494236e-05,5.73602210,3.99283123,2.40502574,-3.34509850,9.42134062e+01,6.41165758,-3.20655218,-1,-0.9916161289570775
1.77397400e+02,5.99957842e+01,-2.00176819e-05,5.73608581,3.99563572,2.39944862,-3.34509850,9.41153993e+01,6.41539155,-3.19582828,-1,-0.9912293236325221
1.82641598e+02,5.99956805e+01,-1.97887452e-05,5.73614076,3.99846115,2.39382523,-3.34509850,9.40249865e+01,6.41915338,-3.18502714,-1,-0.9908383476825215
1.88135504e+02,5.99955738e+01,-1.95629706e-05,5.73615119,4.00137195,2.38800885,-3.34509850,9.39345412e+01,6.42302952,-3.17391907,-1,-0.9904287550017028
1.93703015e+02,5.99954685e+01,-1.91154127e-05,5.73614863,4.00430646,2.38213855,-3.34509851,9.27471496e+01,6.42693762,-3.16272539,-1,-0.9900136747735413
1.99468957e+02,5.99953678e+01,-1.79315891e-05,5.73611115,4.00730401,2.37612471,-3.34509851,8.79210393e+01,6.43093083,-3.15130387,-1,-0.9895838007201401
2.05404885e+02,5.99952730e+01,-1.66788658e-05,5.73604126,4.01034833,2.37000113,-3.34509851,8.26281686e+01,6.43498773,-3.13971770,-1,-0.9891412535300959
2.11454056e+02,5.99951820e+01,-1.53802425e-05,5.73594979,4.01342380,2.36380445,-3.34509851,7.70243485e+01,6.43908708,-3.12802184,-1,-0.9886902636211639
2.17751971e+02,5.99951003e+01,-1.40771827e-05,5.73581097,4.01656160,2.35745944,-3.34509852,7.12027887e+01,6.44327165,-3.11610629,-1,-0.988220728851472
2.24139992e+02,5.99950219e+01,-1.27725157e-05,5.73565500,4.01972198,2.35106069,-3.34509852,6.53023540e+01,6.44748709,-3.10411116,-1,-0.9877444763188448
2.30736761e+02,5.99949539e+01,-1.11589853e-05,5.73545870,4.02293689,2.34453271,-3.34509852,5.76243015e+01,6.45177801,-3.09191654,-1,-0.9872526607873355
2.37465008e+02,5.99948924e+01,-9.35092083e-06,5.73523700,4.02618616,2.33792333,-3.34509852,4.88266371e+01,6.45611646,-3.07959628,-1,-0.9867510430447056
2.44463051e+02,5.99948441e+01,-7.70199972e-06,5.73495593,4.02949648,2.33116215,-3.34509852,4.05945208e+01,6.46054028,-3.06704973,-1,-0.9862293109304586
2.51593754e+02,5.99948024e+01,-6.10451505e-06,5.73464545,4.03283414,2.32433159,-3.34509852,3.25149654e+01,6.46500233,-3.05439948,-1,-0.9856976884822601
2.58918292e+02,5.99947703e+01,-4.56835703e-06,5.73429193,4.03621037,2.31740238,-3.34509851,2.45935895e+01,6.46951833,-3.04160159,-1,-0.9851516148590167
2.66523620e+02,5.99947510e+01,-3.29196469e-06,5.73387433,4.03962935,2.31035562,-3.34509852,1.78689825e+01,6.47409207,-3.02863923,-1,-0.9845846072174543
2.74244818e+02,5.99947363e+01,-2.09645003e-06,5.73343219,4.04306496,2.30326333,-3.34509853,1.15107337e+01,6.47868911,-3.01560427,-1,-0.9840089610036399
2.82273017e+02,5.99947335e+01,-1.07926529e-06,5.73292762,4.04654321,2.29605455,-3.34509854,5.94895394,6.48334713,-3.00237051,-1,-0.9834104266365509
2.90410248e+02,5.99947307e+01,-3.50151924e-07,5.73239809,4.05003748,2.28880124,-3.34509855,1.96895133,6.48802824,-2.98905669,-1,-0.982803763497478
2.98824416e+02,5.99947277e+01,-3.52726268e-07,5.73180511,4.05357242,2.28143487,-3.34509855,2.00658801,6.49276800,-2.97553951,-1,-0.9821764535966572
3.07484746e+02,5.99947246e+01,-3.55058493e-07,5.73116154,4.05713933,2.27397926,-3.34509855,2.04433183,6.49755691,-2.96183023,-1,-0.9815307913335105
3.16341985e+02,5.99947215e+01,-3.57240148e-07,5.73047831,4.06072959,2.26645713,-3.34509855,2.08231552,6.50238215,-2.94797016,-1,-0.9808704487163158
3.25436056e+02,5.99947182e+01,-3.59293830e-07,5.72974838,4.06434519,2.25886097,-3.34509855,2.12077775,6.50724743,-2.93393229,-1,-0.9801924493256371
3.34877669e+02,5.99947148e+01,-3.60942302e-07,5.72895638,4.06798554,2.25118427,-3.34509856,2.15824581,6.51215588,-2.91965579,-1,-0.9794885392878747
3.44511358e+02,5.99947113e+01,-3.62541513e-07,5.72813693,4.07163962,2.24346638,-3.34509857,2.19602722,6.51709413,-2.90523152,-1,-0.9787703092155575
3.54413615e+02,5.99947077e+01,-3.64101500e-07,5.72728024,4.07531290,2.23569147,-3.34509858,2.23439324,6.52207506,-2.89059794,-1,-0.978032056323938
3.64583986e+02,5.99947039e+01,-3.65972618e-07,5.72638496,4.07901126,2.22784711,-3.34509858,2.27548705,6.52711258,-2.87572525,-1,-0.9772738144605331
3.74979844e+02,5.99947001e+01,-3.68010750e-07,5.72545817,4.08272956,2.21994713,-3.34509859,2.31830321,6.53219730,-2.86065483,-1,-0.976498761638801
3.85724708e+02,5.99946961e+01,-3.69819940e-07,5.72448759,4.08647282,2.21197531,-3.34509859,2.36084072,6.53735292,-2.84529570,-1,-0.9756976890229258
3.96772860e+02,5.99946920e+01,-3.71517769e-07,5.72349020,4.09023629,2.20394968,-3.34509859,2.40372959,6.54257645,-2.82968047,-1,-0.9748740050727867
4.08117110e+02,5.99946878e+01,-3.73025724e-07,5.72247689,4.09401588,2.19588384,-3.34509859,2.44643428,6.54786691,-2.81382415,-1,-0.9740282458316606
4.19681770e+02,5.99946835e+01,-3.74373764e-07,5.72145484,4.09780635,2.18779188,-3.34509860,2.48888395,6.55320734,-2.79779145,-1,-0.9731660541428773
4.31751336e+02,5.99946789e+01,-3.75726079e-07,5.72041917,4.10161747,2.17965180,-3.34509861,2.53334865,6.55866050,-2.78138802,-1,-0.9722662196909848
4.43978351e+02,5.99946743e+01,-3.77237132e-07,5.71937814,4.10543907,2.17148809,-3.34509862,2.57960336,6.56415490,-2.76485657,-1,-0.9713546467859768
4.56560146e+02,5.99946695e+01,-3.79105871e-07,5.71832503,4.10928427,2.16327113,-3.34509862,2.62989146,6.56974226,-2.74803668,-1,-0.9704166236120161
4.69554254e+02,5.99946646e+01,-3.80835242e-07,5.71727106,4.11315166,2.15500937,-3.34509862,2.68090674,6.57543396,-2.73090062,-1,-0.9694478608536856
4.82865674e+02,5.99946595e+01,-3.82521868e-07,5.71622321,4.11703436,2.14672004,-3.34509861,2.73279336,6.58120351,-2.71352964,-1,-0.9684554412157624
4.96534803e+02,5.99946542e+01,-3.84106599e-07,5.71519047,4.12093065,2.13841110,-3.34509861,2.78509840,6.58705574,-2.69590894,-1,-0.9674363529402137
5.10532603e+02,5.99946488e+01,-3.85528666e-07,5.71417830,4.12483610,2.13009410,-3.34509863,2.83714699,6.59297941,-2.67807212,-1,-0.9663927609261596
5.25070552e+02,5.99946432e+01,-3.87024131e-07,5.71321013,4.12875547,2.12177127,-3.34509865,2.89108032,6.59901604,-2.65989822,-1,-0.9653088986422915
5.39813981e+02,5.99946374e+01,-3.88704088e-07,5.71225626,4.13268377,2.11343775,-3.34509867,2.94702032,6.60509973,-2.64158438,-1,-0.9642097170020213
5.55007353e+02,5.99946315e+01,-3.90924216e-07,5.71133162,4.13663476,2.10507345,-3.34509867,3.00847618,6.61129000,-2.62295393,-1,-0.9630769903102729
5.70669230e+02,5.99946253e+01,-3.93088228e-07,5.71045288,4.14060519,2.09669321,-3.34509867,3.07103997,6.61758482,-2.60401283,-1,-0.961909334695655
5.86720087e+02,5.99946190e+01,-3.95277079e-07,5.70961700,4.14458909,2.08830746,-3.34509868,3.13506955,6.62395996,-2.58483117,-1,-0.9607126790652041
6.03206355e+02,5.99946124e+01,-3.97391673e-07,5.70884249,4.14858570,2.07992701,-3.34509870,3.19983652,6.63042193,-2.56539015,-1,-0.9594835618020372
6.20049827e+02,5.99946057e+01,-3.99350267e-07,5.70812788,4.15259140,2.07155830,-3.34509873,3.26438480,6.63695405,-2.54574055,-1,-0.9582278135510159
6.37575386e+02,5.99945986e+01,-4.01515478e-07,5.70753041,4.15661132,2.06321972,-3.34509878,3.33256042,6.64360669,-2.52573686,-1,-0.9569212129841957
6.55363950e+02,5.99945914e+01,-4.04103866e-07,5.70697297,4.16064309,2.05487746,-3.34509881,3.40523340,6.65031278,-2.50557490,-1,-0.9555950043419883
6.73598855e+02,5.99945840e+01,-4.07439233e-07,5.70648306,4.16469559,2.04652750,-3.34509881,3.48580283,6.65711026,-2.48514225,-1,-0.9542355191918191
6.92455152e+02,5.99945763e+01,-4.10785355e-07,5.70610633,4.16877351,2.03818329,-3.34509882,3.56872952,6.66402766,-2.46435694,-1,-0.9528297067810236
7.11774230e+02,5.99945682e+01,-4.14259974e-07,5.70582292,4.17286939,2.02984983,-3.34509886,3.65433684,6.67103049,-2.44332129,-1,-0.9513893921944678
7.31620015e+02,5.99945599e+01,-4.17575431e-07,5.70566050,4.17698167,2.02154406,-3.34509893,3.74003989,6.67812185,-2.42202724,-1,-0.9499098094929979
7.51905748e+02,5.99945514e+01,-4.20822390e-07,5.70560535,4.18110719,2.01326544,-3.34509902,3.82631725,6.68528418,-2.40052646,-1,-0.9483974269073033
7.72820619e+02,5.99945425e+01,-4.24362491e-07,5.70570782,4.18525354,2.00502399,-3.34509914,3.91687927,6.69254723,-2.37873265,-1,-0.9468381395656801
7.94215494e+02,5.99945333e+01,-4.29127586e-07,5.70591045,4.18942450,1.99678337,-3.34509918,4.02058557,6.69989464,-2.35669449,-1,-0.9452430660047142
8.16115273e+02,5.99945238e+01,-4.34673341e-07,5.70622391,4.19362105,1.98854700,-3.34509920,4.13344956,6.70732894,-2.33440406,-1,-0.9436103498297473
8.38565654e+02,5.99945139e+01,-4.40266121e-07,5.70666804,4.19784515,1.98032087,-3.34509927,4.24891326,6.71485494,-2.31184680,-1,-0.9419365840719801
8.61629663e+02,5.99945036e+01,-4.46108328e-07,5.70726688,4.20210156,1.97210748,-3.34509935,4.36914957,6.72248218,-2.28899745,-1,-0.9402170698908606
8.85371333e+02,5.99944928e+01,-4.51391527e-07,5.70804867,4.20638693,1.96392762,-3.34509957,4.48606969,6.73020271,-2.26588328,-1,-0.9384470333699566
9.09672313e+02,5.99944817e+01,-4.56946013e-07,5.70897444,4.21069844,1.95576749,-3.34509983,4.60751787,6.73799706,-2.24256109,-1,-0.9366352980499999
9.34358293e+02,5.99944702e+01,-4.62806333e-07,5.70999770,4.21502844,1.94761912,-3.34510010,4.73331643,6.74584236,-2.21909534,-1,-0.9347948594391394
9.59875066e+02,5.99944581e+01,-4.71778970e-07,5.71118982,4.21941126,1.93944954,-3.34510001,4.89484920,6.75381241,-2.19527470,-1,-0.9328924818850071
9.85945593e+02,5.99944456e+01,-4.80689654e-07,5.71249923,4.22382938,1.93126801,-3.34509993,5.05868839,6.76186060,-2.17123166,-1,-0.930948819753859
1.01261730e+03,5.99944325e+01,-4.89730087e-07,5.71393250,4.22828584,1.92307172,-3.34509988,5.22711995,6.76999025,-2.14695894,-1,-0.92896033724758
1.03994874e+03,5.99944188e+01,-4.98360373e-07,5.71549728,4.23278254,1.91486072,-3.34509995,5.39457294,6.77820001,-2.12246327,-1,-0.9269226690056704
1.06784532e+03,5.99944047e+01,-5.06442905e-07,5.71716673,4.23731261,1.90663530,-3.34510008,5.55913589,6.78647174,-2.09779676,-1,-0.9248428673148744
1.09652214e+03,5.99943898e+01,-5.15043990e-07,5.71895498,4.24189000,1.89837463,-3.34509982,5.73386431,6.79482484,-2.07290671,-1,-0.9227048956092871
1.12577382e+03,5.99943744e+01,-5.26511458e-07,5.72080230,4.24650974,1.89005882,-3.34509986,5.94539012,6.80325032,-2.04781322,-1,-0.9205240657899106
1.15566286e+03,5.99943582e+01,-5.39377462e-07,5.72271104,4.25117555,1.88168158,-3.34509999,6.17827731,6.81175194,-2.02250693,-1,-0.9182957182315982
1.18623095e+03,5.99943413e+01,-5.51956848e-07,5.72467613,4.25588917,1.87323687,-3.34510000,6.41468820,6.82032815,-1.99699463,-1,-0.9160167447779919
1.21749087e+03,5.99943237e+01,-5.64602589e-07,5.72668372,4.26065058,1.86471784,-3.34509985,6.65917556,6.82897446,-1.97129088,-1,-0.9136861926289418
1.24946762e+03,5.99943052e+01,-5.77084494e-07,5.72871566,4.26545966,1.85611566,-3.34509956,6.90974190,6.83768626,-1.94540720,-1,-0.9113021979343893
1.28209213e+03,5.99942860e+01,-5.88095187e-07,5.73075241,4.27030804,1.84743727,-3.34510008,7.15007319,6.84644605,-1.91939325,-1,-0.9088699101392763
1.31566114e+03,5.99942658e+01,-5.99499789e-07,5.73275683,4.27521147,1.83863263,-3.34510017,7.40668881,6.85526924,-1.89320254,-1,-0.9063672060889466
1.34978663e+03,5.99942447e+01,-6.13907518e-07,5.73473476,4.28015169,1.82974115,-3.34509964,7.70895211,6.86414096,-1.86687030,-1,-0.9038230142273908
1.38465356e+03,5.99942228e+01,-6.30018517e-07,5.73667308,4.28513933,1.82073503,-3.34509938,8.04409279,6.87307331,-1.84036282,-1,-0.9012235450463347
1.42029224e+03,5.99941998e+01,-6.45335637e-07,5.73856064,4.29017302,1.81161143,-3.34509951,8.38233349,6.88206100,-1.81369753,-1,-0.8985665388139673
1.45671623e+03,5.99941757e+01,-6.60341812e-07,5.74038413,4.29525037,1.80236847,-3.34509927,8.73029545,6.89109895,-1.78688920,-1,-0.8958509845780166
1.49397768e+03,5.99941506e+01,-6.74278783e-07,5.74212275,4.30036868,1.79300116,-3.34509955,9.07880372,6.90018088,-1.75995615,-1,-0.8930729943472604
1.53203924e+03,5.99941244e+01,-6.86778169e-07,5.74376586,4.30551992,1.78352024,-3.34509936,9.42213705,6.90929507,-1.73293157,-1,-0.8902353527136863
1.57087108e+03,5.99940972e+01,-6.99344204e-07,5.74531110,4.31070032,1.77393206,-3.34510027,9.77995403,6.91843818,-1.70582387,-1,-0.8873402836231842
1.61066490e+03,5.99940686e+01,-7.16739537e-07,5.74675224,4.31592433,1.76420461,-3.34510009,1.02255251e+01,6.92763778,-1.67855114,-1,-0.8843734950735042
1.65129245e+03,5.99940388e+01,-7.33129962e-07,5.74810320,4.32118130,1.75436614,-3.34509998,1.06757838e+01,6.93687775,-1.65116151,-1,-0.8813445486154474
1.69280756e+03,5.99940078e+01,-7.48666166e-07,5.74935552,4.32646930,1.74441632,-3.34509952,1.11342009e+01,6.94615529,-1.62366260,-1,-0.8782494310070674
1.73523994e+03,5.99939754e+01,-7.63745803e-07,5.75050422,4.33178534,1.73435859,-3.34509970,1.16076200e+01,6.95546707,-1.59606338,-1,-0.8750859272489544
1.77872534e+03,5.99939416e+01,-7.76235015e-07,5.75152778,4.33712300,1.72419504,-3.34509918,1.20659045e+01,6.96480369,-1.56838931,-1,-0.87184391663529
1.82330491e+03,5.99939063e+01,-7.88582593e-07,5.75243000,4.34247802,1.71393610,-3.34509898,1.25471605e+01,6.97416312,-1.54064732,-1,-0.8685203312688774
1.86874166e+03,5.99938698e+01,-8.03886664e-07,5.75325532,4.34785277,1.70359928,-3.34509886,1.30986084e+01,6.98355424,-1.51281163,-1,-0.8651328397027329
1.91521504e+03,5.99938317e+01,-8.20052163e-07,5.75399434,4.35324948,1.69317537,-3.34509881,1.36929982e+01,6.99298155,-1.48486536,-1,-0.8616680632211354
1.96275699e+03,5.99938158e+01,-2.94923718e-07,5.75465172,4.35866447,1.68267407,-3.34509889,4.97877487,7.00243970,-1.45682490,-1,-0.8581236205692498
2.01149088e+03,5.99938144e+01,-2.90503395e-08,5.75521382,4.36409015,1.67210375,-3.34509899,5.10703086e-01,7.01192020,-1.42871548,-1,-0.8544903140198067
2.06143557e+03,5.99938128e+01,-3.11236585e-08,5.75568870,4.36952121,1.66147908,-3.34509908,5.61994840e-01,7.02141732,-1.40055355,-1,-0.8507667374843216
2.11239325e+03,5.99938111e+01,-3.36284808e-08,5.75610401,4.37496076,1.65080764,-3.34509916,6.23718531e-01,7.03093626,-1.37232372,-1,-0.846967638489999
2.16458868e+03,5.99938092e+01,-3.67845857e-08,5.75645931,4.38041515,1.64007652,-3.34509922,7.01133330e-01,7.04049052,-1.34398456,-1,-0.8430762602792713
2.21803635e+03,5.99938070e+01,-3.98784575e-08,5.75675721,4.38587958,1.62929659,-3.34509928,7.81636253e-01,7.05007300,-1.31555739,-1,-0.8390915225646444
2.27282827e+03,5.99938047e+01,-4.27760126e-08,5.75699756,4.39134797,1.61848000,-3.34509935,8.62693495e-01,7.05967619,-1.28706359,-1,-0.8350065656323624
2.32896336e+03,5.99938021e+01,-4.54849067e-08,5.75718913,4.39681462,1.60764248,-3.34509943,9.44309625e-01,7.06929162,-1.25852795,-1,-0.8308214700007479
