star_age,star_mass,star_mdot,log_L,log_Teff,log_R,log_surf_z,v_wind_Km_per_s,log_center_T,log_center_Rho,phase,x
3.87024407e+02,2.99997396e+02,-6.85970683e-06,6.80555786,4.65403934,1.61737741,-3.34509851,1.36909365e+02,7.44027481,-6.88102335e-01,-1,-1.0
3.92563122e+02,2.99997358e+02,-6.86199521e-06,6.80560570,4.65448257,1.61651485,-3.34509851,1.37164240e+02,7.44114168,-6.85498915e-01,-1,-0.9988024844085387
3.98101837e+02,2.99997320e+02,-6.86428360e-06,6.80565354,4.65492581,1.61565230,-3.34509851,1.37419115e+02,7.44200856,-6.82895494e-01,-1,-0.9976049688170775
4.03640552e+02,2.99997282e+02,-6.86657198e-06,6.80570138,4.65536905,1.61478975,-3.34509851,1.37673989e+02,7.44287544,-6.80292073e-01,-1,-0.9964074532256162
4.09179267e+02,2.99997244e+02,-6.86886037e-06,6.80574922,4.65581228,1.61392719,-3.34509851,1.37928864e+02,7.44374231,-6.77688652e-01,-1,-0.9952099376341549
4.14717982e+02,2.99997206e+02,-6.87114876e-06,6.80579706,4.65625552,1.61306464,-3.34509851,1.38183738e+02,7.44460919,-6.75085231e-01,-1,-0.9940124220426937
4.20256697e+02,2.99997167e+02,-6.87343714e-06,6.80584490,4.65669876,1.61220209,-3.34509851,1.38438613e+02,7.44547606,-6.72481810e-01,-1,-0.9928149064512324
4.25795411e+02,2.99997129e+02,-6.87572553e-06,6.80589274,4.65714199,1.61133953,-3.34509851,1.38693487e+02,7.44634294,-6.69878389e-01,-1,-0.9916173910759793
4.31334126e+02,2.99997091e+02,-6.87801392e-06,6.80594058,4.65758523,1.61047698,-3.34509851,1.38948362e+02,7.44720981,-6.67274968e-01,-1,-0.990419875484518
4.36872841e+02,2.99997053e+02,-6.88030230e-06,6.80598842,4.65802847,1.60961443,-3.34509851,1.39203236e+02,7.44807669,-6.64671547e-01,-1,-0.9892223598930568
4.42411556e+02,2.99997015e+02,-6.88259069e-06,6.80603626,4.65847171,1.60875187,-3.34509851,1.39458111e+02,7.44894357,-6.62068126e-01,-1,-0.9880248443015955
4.47950271e+02,2.99996976e+02,-6.88487907e-06,6.80608410,4.65891494,1.60788932,-3.34509851,1.39712985e+02,7.44981044,-6.59464705e-01,-1,-0.9868273287101342
4.53488986e+02,2.99996938e+02,-6.88716746e-06,6.80613194,4.65935818,1.60702677,-3.34509851,1.39967860e+02,7.45067732,-6.56861284e-01,-1,-0.985629813118673
4.59027701e+02,2.99996900e+02,-6.88945585e-06,6.80617978,4.65980142,1.60616421,-3.34509851,1.40222734e+02,7.45154419,-6.54257863e-01,-1,-0.9844322975272117
4.64589864e+02,2.99996862e+02,-6.89172974e-06,6.80622740,4.66024612,1.60529861,-3.34509851,1.40478231e+02,7.45241403,-6.51645530e-01,-1,-0.9832297122859149
4.71075764e+02,2.99996817e+02,-6.89343288e-06,6.80626614,4.66074867,1.60431288,-3.34509851,1.40758231e+02,7.45340049,-6.48682102e-01,-1,-0.9818274075320761
4.77561665e+02,2.99996772e+02,-6.89513601e-06,6.80630489,4.66125122,1.60332715,-3.34509851,1.41038231e+02,7.45438695,-6.45718674e-01,-1,-0.9804251025620291
4.84047565e+02,2.99996727e+02,-6.89683914e-06,6.80634363,4.66175377,1.60234142,-3.34509851,1.41318231e+02,7.45537341,-6.42755246e-01,-1,-0.9790227978081901
4.90533465e+02,2.99996683e+02,-6.89854227e-06,6.80638237,4.66225632,1.60135569,-3.34509851,1.41598231e+02,7.45635988,-6.39791817e-01,-1,-0.9776204930543513
4.97019366e+02,2.99996638e+02,-6.90024540e-06,6.80642111,4.66275887,1.60036997,-3.34509851,1.41878231e+02,7.45734634,-6.36828389e-01,-1,-0.9762181880843043
5.03505266e+02,2.99996593e+02,-6.90194853e-06,6.80645986,4.66326142,1.59938424,-3.34509851,1.42158231e+02,7.45833280,-6.33864961e-01,-1,-0.9748158833304654
5.09991166e+02,2.99996548e+02,-6.90365166e-06,6.80649860,4.66376397,1.59839851,-3.34509851,1.42438231e+02,7.45931926,-6.30901533e-01,-1,-0.9734135785766265
5.16477067e+02,2.99996503e+02,-6.90535479e-06,6.80653734,4.66426652,1.59741278,-3.34509851,1.42718231e+02,7.46030572,-6.27938105e-01,-1,-0.9720112736065795
5.22962967e+02,2.99996458e+02,-6.90705792e-06,6.80657609,4.66476907,1.59642705,-3.34509851,1.42998231e+02,7.46129219,-6.24974677e-01,-1,-0.9706089688527406
5.29448868e+02,2.99996414e+02,-6.90876105e-06,6.80661483,4.66527162,1.59544132,-3.34509851,1.43278231e+02,7.46227865,-6.22011248e-01,-1,-0.9692066638826935
5.36251400e+02,2.99996367e+02,-6.90979565e-06,6.80665256,4.66579468,1.59441408,-3.34509851,1.43556402e+02,7.46330438,-6.18929852e-01,-1,-0.9677359006945868
5.43604288e+02,2.99996316e+02,-6.90966826e-06,6.80668854,4.66635336,1.59331470,-3.34509852,1.43831396e+02,7.46439839,-6.15643408e-01,-1,-0.9661461460272555
5.50957177e+02,2.99996265e+02,-6.90954086e-06,6.80672452,4.66691205,1.59221531,-3.34509852,1.44106390e+02,7.46549239,-6.12356964e-01,-1,-0.9645563911437158
5.58310065e+02,2.99996214e+02,-6.90941346e-06,6.80676050,4.66747074,1.59111592,-3.34509852,1.44381384e+02,7.46658639,-6.09070521e-01,-1,-0.9629666364763845
5.65662953e+02,2.99996163e+02,-6.90928606e-06,6.80679648,4.66802943,1.59001653,-3.34509852,1.44656378e+02,7.46768039,-6.05784077e-01,-1,-0.961376881809053
5.73015842e+02,2.99996113e+02,-6.90915867e-06,6.80683245,4.66858812,1.58891714,-3.34509852,1.44931372e+02,7.46877439,-6.02497633e-01,-1,-0.9597871269255134
5.80368730e+02,2.99996062e+02,-6.90903127e-06,6.80686843,4.66914681,1.58781776,-3.34509852,1.45206365e+02,7.46986840,-5.99211189e-01,-1,-0.958197372258182
5.87721618e+02,2.99996011e+02,-6.90890387e-06,6.80690441,4.66970549,1.58671837,-3.34509852,1.45481359e+02,7.47096240,-5.95924746e-01,-1,-0.9566076175908507
5.95074506e+02,2.99995960e+02,-6.90877648e-06,6.80694039,4.67026418,1.58561898,-3.34509852,1.45756353e+02,7.47205640,-5.92638302e-01,-1,-0.9550178629235192
6.02724856e+02,2.99995907e+02,-6.90814593e-06,6.80697525,4.67084081,1.58448315,-3.34509852,1.46031041e+02,7.47318506,-5.89247818e-01,-1,-0.9533637945330828
6.10917681e+02,2.99995851e+02,-6.90659781e-06,6.80700806,4.67145015,1.58328087,-3.34509852,1.46305170e+02,7.47437693,-5.85667599e-01,-1,-0.9515924386002331
6.19110507e+02,2.99995794e+02,-6.90504969e-06,6.80704088,4.67205950,1.58207859,-3.34509852,1.46579300e+02,7.47556880,-5.82087379e-01,-1,-0.9498210824511752
6.27303332e+02,2.99995738e+02,-6.90350157e-06,6.80707369,4.67266884,1.58087632,-3.34509852,1.46853429e+02,7.47676067,-5.78507160e-01,-1,-0.9480497265183255
6.35496158e+02,2.99995681e+02,-6.90195344e-06,6.80710651,4.67327819,1.57967404,-3.34509852,1.47127559e+02,7.47795255,-5.74926940e-01,-1,-0.9462783703692677
6.43688983e+02,2.99995625e+02,-6.90040532e-06,6.80713932,4.67388753,1.57847176,-3.34509852,1.47401688e+02,7.47914442,-5.71346721e-01,-1,-0.9445070144364179
6.51881808e+02,2.99995568e+02,-6.89885720e-06,6.80717214,4.67449687,1.57726948,-3.34509852,1.47675818e+02,7.48033629,-5.67766502e-01,-1,-0.9427356585035682
6.60074634e+02,2.99995512e+02,-6.89730908e-06,6.80720495,4.67510622,1.57606720,-3.34509852,1.47949947e+02,7.48152816,-5.64186282e-01,-1,-0.9409643023545103
6.68571752e+02,2.99995453e+02,-6.89542726e-06,6.80723775,4.67573351,1.57482901,-3.34509852,1.48226745e+02,7.48275346,-5.60505961e-01,-1,-0.9391271557803526
6.77675928e+02,2.99995391e+02,-6.89287972e-06,6.80727051,4.67639661,1.57351919,-3.34509852,1.48508866e+02,7.48404547,-5.56625939e-01,-1,-0.9371587582897059
6.86780103e+02,2.99995328e+02,-6.89033218e-06,6.80730326,4.67705970,1.57220938,-3.34509852,1.48790987e+02,7.48533748,-5.52745917e-01,-1,-0.9351903610152673
6.95884279e+02,2.99995266e+02,-6.88778464e-06,6.80733602,4.67772280,1.57089956,-3.34509852,1.49073108e+02,7.48662949,-5.48865895e-01,-1,-0.9332219635246205
7.04988455e+02,2.99995203e+02,-6.88523710e-06,6.80736878,4.67838590,1.56958974,-3.34509852,1.49355229e+02,7.48792150,-5.44985873e-01,-1,-0.9312535660339738
7.14092630e+02,2.99995140e+02,-6.88268956e-06,6.80740153,4.67904900,1.56827993,-3.34509852,1.49637351e+02,7.48921351,-5.41105851e-01,-1,-0.9292851687595353
7.23196806e+02,2.99995078e+02,-6.88014202e-06,6.80743429,4.67971209,1.56697011,-3.34509852,1.49919472e+02,7.49050552,-5.37225829e-01,-1,-0.9273167712688886
7.32300982e+02,2.99995015e+02,-6.87759448e-06,6.80746705,4.68037519,1.56566029,-3.34509852,1.50201593e+02,7.49179753,-5.33345807e-01,-1,-0.9253483737782418
7.41405157e+02,2.99994953e+02,-6.87504693e-06,6.80749980,4.68103829,1.56435048,-3.34509852,1.50483714e+02,7.49308953,-5.29465785e-01,-1,-0.9233799765038032
7.51242506e+02,2.99994885e+02,-6.87157331e-06,6.80752989,4.68173822,1.56296566,-3.34509852,1.50767109e+02,7.49445347,-5.25369518e-01,-1,-0.9212530609997295
7.61436088e+02,2.99994816e+02,-6.86764972e-06,6.80755868,4.68245605,1.56154440,-3.34509852,1.51051122e+02,7.49585234,-5.21168182e-01,-1,-0.919049125000524
7.71629669e+02,2.99994746e+02,-6.86372613e-06,6.80758747,4.68317387,1.56012314,-3.34509852,1.51335136e+02,7.49725122,-5.16966845e-01,-1,-0.9168451892175269
7.81823250e+02,2.99994676e+02,-6.85980254e-06,6.80761625,4.68389170,1.55870188,-3.34509852,1.51619150e+02,7.49865010,-5.12765509e-01,-1,-0.9146412534345296
7.92016831e+02,2.99994607e+02,-6.85587895e-06,6.80764504,4.68460953,1.55728062,-3.34509852,1.51903164e+02,7.50004898,-5.08564173e-01,-1,-0.9124373176515325
8.02210413e+02,2.99994537e+02,-6.85195536e-06,6.80767383,4.68532735,1.55585936,-3.34509852,1.52187178e+02,7.50144785,-5.04362837e-01,-1,-0.910233381652327
8.12403994e+02,2.99994467e+02,-6.84803177e-06,6.80770262,4.68604518,1.55443810,-3.34509852,1.52471191e+02,7.50284673,-5.00161500e-01,-1,-0.9080294458693299
8.22597575e+02,2.99994397e+02,-6.84410818e-06,6.80773141,4.68676301,1.55301684,-3.34509852,1.52755205e+02,7.50424561,-4.95960164e-01,-1,-0.9058255100863326
8.32791156e+02,2.99994328e+02,-6.84018459e-06,6.80776020,4.68748084,1.55159558,-3.34509852,1.53039219e+02,7.50564448,-4.91758828e-01,-1,-0.9036215743033355
8.43417992e+02,2.99994255e+02,-6.83467216e-06,6.80778439,4.68821591,1.55013752,-3.34509852,1.53298843e+02,7.50708179,-4.87441648e-01,-1,-0.9013239652373514
8.54720601e+02,2.99994179e+02,-6.82668150e-06,6.80780140,4.68897790,1.54862205,-3.34509853,1.53520425e+02,7.50857902,-4.82943778e-01,-1,-0.898880248508527
8.66023210e+02,2.99994102e+02,-6.81869084e-06,6.80781842,4.68973989,1.54710658,-3.34509853,1.53742007e+02,7.51007626,-4.78445909e-01,-1,-0.8964365317797027
8.77325819e+02,2.99994025e+02,-6.81070019e-06,6.80783543,4.69050188,1.54559112,-3.34509853,1.53963589e+02,7.51157350,-4.73948040e-01,-1,-0.8939928150508784
8.88628428e+02,2.99993949e+02,-6.80270953e-06,6.80785245,4.69126386,1.54407565,-3.34509853,1.54185171e+02,7.51307073,-4.69450171e-01,-1,-0.891549098322054
8.99931037e+02,2.99993872e+02,-6.79471887e-06,6.80786946,4.69202585,1.54256018,-3.34509853,1.54406753e+02,7.51456797,-4.64952301e-01,-1,-0.8891053815932296
9.11233647e+02,2.99993796e+02,-6.78672821e-06,6.80788648,4.69278784,1.54104471,-3.34509853,1.54628335e+02,7.51606520,-4.60454432e-01,-1,-0.8866616646481971
9.22732511e+02,2.99993718e+02,-6.77835306e-06,6.80790377,4.69355892,1.53951120,-3.34509853,1.54846114e+02,7.51757980,-4.55904554e-01,-1,-0.8841755159794006
9.35019270e+02,2.99993635e+02,-6.76843433e-06,6.80792218,4.69436652,1.53790521,-3.34509853,1.55048626e+02,7.51916408,-4.51145880e-01,-1,-0.8815190179521457
9.47306030e+02,2.99993553e+02,-6.75851559e-06,6.80794059,4.69517412,1.53629922,-3.34509853,1.55251138e+02,7.52074837,-4.46387206e-01,-1,-0.8788625197086827
9.59592790e+02,2.99993470e+02,-6.74859685e-06,6.80795900,4.69598171,1.53469323,-3.34509853,1.55453651e+02,7.52233266,-4.41628532e-01,-1,-0.8762060214652195
9.71879549e+02,2.99993388e+02,-6.73867811e-06,6.80797741,4.69678931,1.53308724,-3.34509853,1.55656163e+02,7.52391694,-4.36869858e-01,-1,-0.8735495234379647
9.84166309e+02,2.99993305e+02,-6.72875937e-06,6.80799582,4.69759691,1.53148125,-3.34509853,1.55858675e+02,7.52550123,-4.32111184e-01,-1,-0.8708930251945016
9.96453069e+02,2.99993222e+02,-6.71884063e-06,6.80801423,4.69840450,1.52987526,-3.34509853,1.56061187e+02,7.52708552,-4.27352510e-01,-1,-0.8682365269510385
1.00963932e+03,2.99993135e+02,-6.70753366e-06,6.80803144,4.69924790,1.52819706,-3.34509853,1.56252547e+02,7.52873975,-4.22383401e-01,-1,-0.8653855513790111
1.02287423e+03,2.99993047e+02,-6.69615158e-06,6.80804859,4.70009324,1.52651497,-3.34509853,1.56443303e+02,7.53039776,-4.17402908e-01,-1,-0.862524055332259
1.03610915e+03,2.99992959e+02,-6.68476950e-06,6.80806574,4.70093858,1.52483287,-3.34509853,1.56634059e+02,7.53205578,-4.12422414e-01,-1,-0.8596625571234249
1.04934406e+03,2.99992870e+02,-6.67338742e-06,6.80808289,4.70178391,1.52315077,-3.34509853,1.56824816e+02,7.53371380,-4.07441920e-01,-1,-0.8568010610766728
1.06257898e+03,2.99992782e+02,-6.66200534e-06,6.80810004,4.70262925,1.52146867,-3.34509853,1.57015572e+02,7.53537182,-4.02461426e-01,-1,-0.8539395628678387
1.07603014e+03,2.99992693e+02,-6.65070896e-06,6.80811774,4.70348275,1.51977053,-3.34509853,1.57213024e+02,7.53704454,-3.97437086e-01,-1,-0.851031311798188
1.09029517e+03,2.99992599e+02,-6.63973512e-06,6.80813748,4.70436695,1.51801198,-3.34509853,1.57435677e+02,7.53877259,-3.92247728e-01,-1,-0.8479470953621261
1.10456020e+03,2.99992505e+02,-6.62876129e-06,6.80815723,4.70525116,1.51625344,-3.34509853,1.57658330e+02,7.54050065,-3.87058371e-01,-1,-0.8448628789260642
1.11882523e+03,2.99992411e+02,-6.61778745e-06,6.80817698,4.70613537,1.51449490,-3.34509853,1.57880983e+02,7.54222871,-3.81869013e-01,-1,-0.8417786624900023
1.13309026e+03,2.99992318e+02,-6.60681361e-06,6.80819672,4.70701958,1.51273636,-3.34509853,1.58103635e+02,7.54395676,-3.76679656e-01,-1,-0.8386944460539403
1.14735529e+03,2.99992224e+02,-6.59583977e-06,6.80821647,4.70790378,1.51097782,-3.34509854,1.58326288e+02,7.54568482,-3.71490298e-01,-1,-0.8356102296178785
1.16162032e+03,2.99992130e+02,-6.58486593e-06,6.80823621,4.70878799,1.50921928,-3.34509854,1.58548941e+02,7.54741288,-3.66300941e-01,-1,-0.8325260131818164
1.17690338e+03,2.99992030e+02,-6.57256797e-06,6.80825209,4.70969947,1.50740425,-3.34509854,1.58756904e+02,7.54919546,-3.60947333e-01,-1,-0.8292216903135631
1.19240880e+03,2.99991930e+02,-6.55998077e-06,6.80826711,4.71061692,1.50557687,-3.34509854,1.58961658e+02,7.55098996,-3.55557849e-01,-1,-0.8258692913903192
1.20791422e+03,2.99991829e+02,-6.54739357e-06,6.80828214,4.71153436,1.50374950,-3.34509854,1.59166412e+02,7.55278446,-3.50168364e-01,-1,-0.8225168924670752
1.22341965e+03,2.99991728e+02,-6.53480637e-06,6.80829717,4.71245180,1.50192213,-3.34509854,1.59371166e+02,7.55457896,-3.44778879e-01,-1,-0.8191644913817491
1.23892507e+03,2.99991627e+02,-6.52221917e-06,6.80831220,4.71336925,1.50009476,-3.34509854,1.59575920e+02,7.55637346,-3.39389394e-01,-1,-0.8158120924585051
1.25443049e+03,2.99991527e+02,-6.50963197e-06,6.80832723,4.71428669,1.49826739,-3.34509854,1.59780674e+02,7.55816796,-3.33999909e-01,-1,-0.8124596935352612
1.26993591e+03,2.99991426e+02,-6.49704477e-06,6.80834226,4.71520413,1.49644002,-3.34509854,1.59985428e+02,7.55996245,-3.28610424e-01,-1,-0.8091072946120171
1.28642030e+03,2.99991320e+02,-6.47881522e-06,6.80834505,4.71613796,1.49457376,-3.34509854,1.60061081e+02,7.56180227,-3.23083075e-01,-1,-0.8055432343488103
1.30320202e+03,2.99991213e+02,-6.45887188e-06,6.80834413,4.71707676,1.49269569,-3.34509854,1.60097521e+02,7.56365585,-3.17513851e-01,-1,-0.8019148889019805
1.31998375e+03,2.99991106e+02,-6.43892853e-06,6.80834321,4.71801556,1.49081763,-3.34509854,1.60133961e+02,7.56550944,-3.11944627e-01,-1,-0.7982865412930688
1.33676548e+03,2.99990999e+02,-6.41898519e-06,6.80834228,4.71895437,1.48893956,-3.34509854,1.60170401e+02,7.56736302,-3.06375404e-01,-1,-0.7946581936841571
1.35354720e+03,2.99990892e+02,-6.39904184e-06,6.80834136,4.71989317,1.48706149,-3.34509854,1.60206841e+02,7.56921660,-3.00806180e-01,-1,-0.7910298482373275
1.37044819e+03,2.99990784e+02,-6.37903185e-06,6.80834070,4.72083515,1.48517719,-3.34509854,1.60242524e+02,7.57107607,-2.95219330e-01,-1,-0.7873757156386776
1.38837170e+03,2.99990672e+02,-6.35845041e-06,6.80834232,4.72180442,1.48323947,-3.34509854,1.60271714e+02,7.57298600,-2.89481350e-01,-1,-0.7835005058330256
1.40629522e+03,2.99990559e+02,-6.33786897e-06,6.80834394,4.72277369,1.48130175,-3.34509855,1.60300905e+02,7.57489592,-2.83743369e-01,-1,-0.7796252938652916
1.42421874e+03,2.99990447e+02,-6.31728753e-06,6.80834555,4.72374295,1.47936403,-3.34509855,1.60330096e+02,7.57680585,-2.78005389e-01,-1,-0.7757500818975576
1.44214225e+03,2.99990334e+02,-6.29670610e-06,6.80834717,4.72471222,1.47742630,-3.34509855,1.60359286e+02,7.57871577,-2.72267409e-01,-1,-0.7718748720919055
1.46010742e+03,2.99990222e+02,-6.27621567e-06,6.80834898,4.72568255,1.47548655,-3.34509855,1.60391098e+02,7.58062747,-2.66524140e-01,-1,-0.7679906550527091
1.47925106e+03,2.99990104e+02,-6.25830073e-06,6.80835618,4.72668303,1.47348917,-3.34509855,1.60497071e+02,7.58258942,-2.60631230e-01,-1,-0.7638516431379742
1.49839470e+03,2.99989985e+02,-6.24038578e-06,6.80836338,4.72768352,1.47149180,-3.34509855,1.60603045e+02,7.58455138,-2.54738321e-01,-1,-0.7597126312232392
1.51753835e+03,2.99989867e+02,-6.22247083e-06,6.80837057,4.72868400,1.46949443,-3.34509855,1.60709018e+02,7.58651333,-2.48845411e-01,-1,-0.7555736171464221
1.53668199e+03,2.99989749e+02,-6.20455588e-06,6.80837777,4.72968449,1.46749706,-3.34509855,1.60814992e+02,7.58847529,-2.42952501e-01,-1,-0.7514346052316871
1.55582563e+03,2.99989631e+02,-6.18664093e-06,6.80838497,4.73068498,1.46549969,-3.34509855,1.60920965e+02,7.59043724,-2.37059591e-01,-1,-0.7472955933169521
1.57546654e+03,2.99989510e+02,-6.16822785e-06,6.80839092,4.73169405,1.46348452,-3.34509855,1.61016321e+02,7.59241688,-2.31120969e-01,-1,-0.7430490675514112
1.59608333e+03,2.99989386e+02,-6.14883714e-06,6.80839441,4.73271997,1.46143442,-3.34509855,1.61090840e+02,7.59443125,-2.25092634e-01,-1,-0.7385915485292405
1.61670013e+03,2.99989261e+02,-6.12944644e-06,6.80839789,4.73374589,1.45938432,-3.34509855,1.61165359e+02,7.59644562,-2.19064299e-01,-1,-0.7341340273449877
1.63731693e+03,2.99989136e+02,-6.11005574e-06,6.80840138,4.73477181,1.45733421,-3.34509855,1.61239878e+02,7.59845999,-2.13035965e-01,-1,-0.7296765061607349
1.65793372e+03,2.99989011e+02,-6.09066504e-06,6.80840487,4.73579774,1.45528411,-3.34509856,1.61314396e+02,7.60047435,-2.07007630e-01,-1,-0.7252189871385641
1.67855052e+03,2.99988886e+02,-6.07127434e-06,6.80840835,4.73682366,1.45323401,-3.34509856,1.61388915e+02,7.60248872,-2.00979295e-01,-1,-0.7207614659543113
1.69916732e+03,2.99988762e+02,-6.05188364e-06,6.80841184,4.73784958,1.45118391,-3.34509856,1.61463434e+02,7.60450309,-1.94950960e-01,-1,-0.7163039447700585
1.72128485e+03,2.99988631e+02,-6.02291411e-06,6.80839873,4.73889050,1.44909552,-3.34509856,1.61282285e+02,7.60656517,-1.88815275e-01,-1,-0.7115219534562588
1.74341738e+03,2.99988500e+02,-5.99384879e-06,6.80838545,4.73993156,1.44700675,-3.34509856,1.61098580e+02,7.60862773,-1.82678517e-01,-1,-0.7067367190194834
1.76554992e+03,2.99988370e+02,-5.96478348e-06,6.80837217,4.74097263,1.44491798,-3.34509856,1.60914875e+02,7.61069029,-1.76541758e-01,-1,-0.7019514824206261
1.78768245e+03,2.99988239e+02,-5.93571816e-06,6.80835889,4.74201369,1.44282921,-3.34509856,1.60731170e+02,7.61275285,-1.70404999e-01,-1,-0.6971662479838507
1.80981499e+03,2.99988109e+02,-5.90665284e-06,6.80834561,4.74305476,1.44074044,-3.34509856,1.60547465e+02,7.61481541,-1.64268241e-01,-1,-0.6923810113849934
1.83311199e+03,2.99987974e+02,-5.87820932e-06,6.80833840,4.74412372,1.43859891,-3.34509856,1.60380024e+02,7.61692536,-1.57989950e-01,-1,-0.6873440089874565
1.85657985e+03,2.99987838e+02,-5.84985702e-06,6.80833209,4.74519678,1.43644963,-3.34509856,1.60214969e+02,7.61904227,-1.51690893e-01,-1,-0.6822700652571454
1.88004771e+03,2.99987703e+02,-5.82150473e-06,6.80832577,4.74626984,1.43430035,-3.34509856,1.60049915e+02,7.62115917,-1.45391835e-01,-1,-0.6771961215268343
1.90351557e+03,2.99987567e+02,-5.79315244e-06,6.80831945,4.74734290,1.43215107,-3.34509857,1.59884860e+02,7.62327607,-1.39092778e-01,-1,-0.6721221777965232
1.92735217e+03,2.99987431e+02,-5.76597053e-06,6.80831637,4.74842638,1.42998259,-3.34509857,1.59753429e+02,7.62540954,-1.32743783e-01,-1,-0.6669685094551434
1.95223003e+03,2.99987290e+02,-5.74209358e-06,6.80832243,4.74953925,1.42775987,-3.34509857,1.59716946e+02,7.62758980,-1.26253774e-01,-1,-0.6615897121651237
