star_age,star_mass,star_mdot,log_Teff,log_R,log_surf_z,surface_h1,surface_he3,log_center_T,log_center_Rho,phase,x
8.49543516e+01,3.59999055e+01,-2.10377095e-06,3.67222336,2.62557380,-4.84509851,7.50949398e-01,4.13306747e-05,5.86478160,-4.59655929,-1,-1.0
8.76510545e+01,3.59998994e+01,-2.31019731e-06,3.67364785,2.63390040,-4.84509851,7.50949398e-01,4.13306747e-05,5.86690310,-4.58913554,-1,-0.9999209957738519
9.05140330e+01,3.59998923e+01,-2.51187966e-06,3.67515934,2.64096683,-4.84509851,7.50949398e-01,4.13306747e-05,5.86921270,-4.58113741,-1,-0.9998371202379628
9.35845968e+01,3.59998842e+01,-2.68898997e-06,3.67662720,2.64652470,-4.84509851,7.50949397e-01,4.13306747e-05,5.87172870,-4.57250438,-1,-0.9997471631585761
9.68362763e+01,3.59998750e+01,-2.84206172e-06,3.67804680,2.65091311,-4.84509850,7.50949397e-01,4.13306747e-05,5.87445340,-4.56323416,-1,-0.9996519000049751
1.00238161e+02,3.59998650e+01,-2.98149526e-06,3.67947719,2.65450534,-4.84509850,7.50949397e-01,4.13306747e-05,5.87734564,-4.55346573,-1,-0.9995522363497135
1.03786761e+02,3.59998540e+01,-3.11438850e-06,3.68096041,2.65748737,-4.84509850,7.50949397e-01,4.13306747e-05,5.88040069,-4.54322194,-1,-0.9994482744349956
1.07469632e+02,3.59998421e+01,-3.24428330e-06,3.68250227,2.66001956,-4.84509850,7.50949397e-01,4.13306747e-05,5.88360402,-4.53254746,-1,-0.9993403788365007
1.11285046e+02,3.59998293e+01,-3.37244765e-06,3.68410439,2.66218466,-4.84509849,7.50949397e-01,4.13306748e-05,5.88696563,-4.52140729,-1,-0.9992286001787537
1.15253988e+02,3.59998154e+01,-3.49869552e-06,3.68577201,2.66399164,-4.84509849,7.50949397e-01,4.13306748e-05,5.89049117,-4.50980015,-1,-0.9991123236726036
1.19356260e+02,3.59998007e+01,-3.62394425e-06,3.68750261,2.66551533,-4.84509849,7.50949397e-01,4.13306748e-05,5.89416948,-4.49775133,-1,-0.9989921410507772
1.23607464e+02,3.59997848e+01,-3.74851620e-06,3.68930566,2.66674775,-4.84509849,7.50949397e-01,4.13306748e-05,5.89802301,-4.48519573,-1,-0.9988675952277212
1.28014360e+02,3.59997678e+01,-3.87213345e-06,3.69118299,2.66770154,-4.84509849,7.50949396e-01,4.13306748e-05,5.90205394,-4.47213281,-1,-0.9987384881584199
1.32563791e+02,3.59997497e+01,-3.99555245e-06,3.69312502,2.66841886,-4.84509849,7.50949396e-01,4.13306748e-05,5.90623205,-4.45865945,-1,-0.9986052052982394
1.37289924e+02,3.59997303e+01,-4.11799088e-06,3.69515471,2.66884569,-4.84509849,7.50949396e-01,4.13306748e-05,5.91060552,-4.44463291,-1,-0.9984667456702477
1.42162225e+02,3.59997098e+01,-4.23924535e-06,3.69726254,2.66903547,-4.84509849,7.50949396e-01,4.13306748e-05,5.91515129,-4.43011342,-1,-0.998324003816829
1.47216145e+02,3.59996879e+01,-4.36040957e-06,3.69946486,2.66894321,-4.84509848,7.50949396e-01,4.13306748e-05,5.91989368,-4.41504084,-1,-0.998175941144217
1.52434754e+02,3.59996646e+01,-4.48011176e-06,3.70175358,2.66859960,-4.84509848,7.50949396e-01,4.13306748e-05,5.92480902,-4.39948356,-1,-0.9980230536438496
1.57827707e+02,3.59996400e+01,-4.59827287e-06,3.70413177,2.66799424,-4.84509848,7.50949396e-01,4.13306748e-05,5.92989472,-4.38346092,-1,-0.9978650584570539
1.63401897e+02,3.59996138e+01,-4.71349321e-06,3.70661259,2.66710835,-4.84509848,7.50949396e-01,4.13306748e-05,5.93517908,-4.36687991,-1,-0.997701753642366
1.69164611e+02,3.59995862e+01,-4.82684031e-06,3.70919580,2.66593814,-4.84509848,7.50949396e-01,4.13306748e-05,5.94064665,-4.34979765,-1,-0.997532925715462
1.75113628e+02,3.59995570e+01,-4.93715439e-06,3.71189378,2.66447332,-4.84509848,7.50949396e-01,4.13306748e-05,5.94632856,-4.33211383,-1,-0.9973586397440904
1.81260486e+02,3.59995261e+01,-5.04487167e-06,3.71469956,2.66271324,-4.84509848,7.50949396e-01,4.13306748e-05,5.95218225,-4.31396722,-1,-0.9971785577040807
1.87601581e+02,3.59994937e+01,-5.14856971e-06,3.71762592,2.66064318,-4.84509848,7.50949396e-01,4.13306748e-05,5.95824505,-4.29523402,-1,-0.996992785180379
1.94139514e+02,3.59994595e+01,-5.24890341e-06,3.72067018,2.65826662,-4.84509848,7.50949396e-01,4.13306748e-05,5.96449615,-4.27598768,-1,-0.9968012459725288
2.00888545e+02,3.59994237e+01,-5.34511777e-06,3.72383680,2.65556329,-4.84509848,7.50949396e-01,4.13306748e-05,5.97092926,-4.25625451,-1,-0.9966035223110145
2.07839973e+02,3.59993861e+01,-5.43634938e-06,3.72712975,2.65253376,-4.84509848,7.50949396e-01,4.13306748e-05,5.97755754,-4.23598625,-1,-0.9963998691055521
2.15011303e+02,3.59993466e+01,-5.52275191e-06,3.73055194,2.64915968,-4.84509849,7.50949396e-01,4.13306748e-05,5.98436984,-4.21522622,-1,-0.9961897735191594
2.22396529e+02,3.59993054e+01,-5.60357306e-06,3.73410348,2.64544432,-4.84509848,7.50949396e-01,4.13306748e-05,5.99136805,-4.19396266,-1,-0.9959734115072154
2.29997857e+02,3.59992625e+01,-5.67879322e-06,3.73779419,2.64137597,-4.84509848,7.50949396e-01,4.13306748e-05,5.99857199,-4.17212705,-1,-0.9957507184414209
2.37823500e+02,3.59992177e+01,-5.74766488e-06,3.74161550,2.63695796,-4.84509848,7.50949396e-01,4.13306748e-05,6.00594581,-4.14984539,-1,-0.9955214537088001
2.45875349e+02,3.59991710e+01,-5.80989237e-06,3.74557048,2.63218077,-4.84509848,7.50949396e-01,4.13306748e-05,6.01349710,-4.12708893,-1,-0.9952855619094823
2.54155568e+02,3.59991226e+01,-5.86533053e-06,3.74965897,2.62704352,-4.84509848,7.50949396e-01,4.13306748e-05,6.02122158,-4.10387185,-1,-0.9950429796456253
2.62672246e+02,3.59990724e+01,-5.91295583e-06,3.75388475,2.62153283,-4.84509848,7.50949396e-01,4.13306748e-05,6.02912167,-4.08018845,-1,-0.9947934699370315
2.71421465e+02,3.59990204e+01,-5.95339635e-06,3.75824488,2.61565984,-4.84509848,7.50949396e-01,4.13306748e-05,6.03718547,-4.05606487,-1,-0.9945371475677801
2.80414481e+02,3.59989667e+01,-5.98562562e-06,3.76273348,2.60941705,-4.84509848,7.50949396e-01,4.13306748e-05,6.04538773,-4.03158829,-1,-0.9942736827753412
2.89644963e+02,3.59989113e+01,-6.00966238e-06,3.76735679,2.60280353,-4.84509848,7.50949396e-01,4.13306748e-05,6.05374934,-4.00667242,-1,-0.9940032610364897
2.99126528e+02,3.59988542e+01,-6.02514842e-06,3.77211023,2.59581629,-4.84509848,7.50949396e-01,4.13306748e-05,6.06224612,-3.98141403,-1,-0.9937254834194233
3.08855528e+02,3.59987956e+01,-6.03217326e-06,3.77699172,2.58846289,-4.84509848,7.50949396e-01,4.13306748e-05,6.07087954,-3.95579742,-1,-0.9934404567981389
3.18836238e+02,3.59987354e+01,-6.03073308e-06,3.78199842,2.58074895,-4.84509848,7.50949396e-01,4.13306748e-05,6.07964505,-3.92982870,-1,-0.9931480559296714
3.29073585e+02,3.59986737e+01,-6.02094597e-06,3.78712597,2.57268286,-4.84509848,7.50949396e-01,4.13306748e-05,6.08853578,-3.90353163,-1,-0.9928481364696727
3.39572594e+02,3.59986106e+01,-6.00305682e-06,3.79236907,2.56427535,-4.84509849,7.50949397e-01,4.13306747e-05,6.09754404,-3.87692416,-1,-0.992540551202728
3.50338577e+02,3.59985461e+01,-5.97744568e-06,3.79772234,2.55553799,-4.84509850,7.50949397e-01,4.13306747e-05,6.10666570,-3.85001711,-1,-0.9922251445052981
3.61375772e+02,3.59984804e+01,-5.94416740e-06,3.80318276,2.54647786,-4.84509851,7.50949398e-01,4.13306746e-05,6.11589394,-3.82282891,-1,-0.9919017922183921
3.72689436e+02,3.59984134e+01,-5.90373441e-06,3.80874579,2.53710705,-4.84509853,7.50949399e-01,4.13306745e-05,6.12522270,-3.79537683,-1,-0.9915703403297841
3.84285897e+02,3.59983453e+01,-5.85658516e-06,3.81440572,2.52743916,-4.84509853,7.50949399e-01,4.13306745e-05,6.13464590,-3.76767400,-1,-0.9912306034505892
3.96171441e+02,3.59982761e+01,-5.80320355e-06,3.82015559,2.51749133,-4.84509852,7.50949399e-01,4.13306746e-05,6.14416123,-3.73972789,-1,-0.99088239742238
4.08355981e+02,3.59982058e+01,-5.74395801e-06,3.82599087,2.50727583,-4.84509849,7.50949397e-01,4.13306747e-05,6.15376295,-3.71155435,-1,-0.9905254318279607
4.20845015e+02,3.59981346e+01,-5.67940081e-06,3.83190666,2.49680661,-4.84509849,7.50949397e-01,4.13306747e-05,6.16344407,-3.68316984,-1,-0.9901595455946246
4.33646222e+02,3.59980625e+01,-5.60946320e-06,3.83789891,2.48609586,-4.84509848,7.50949397e-01,4.13306747e-05,6.17320237,-3.65457830,-1,-0.9897845137537805
4.46761667e+02,3.59979895e+01,-5.53527013e-06,3.84396496,2.47515387,-4.84509848,7.50949397e-01,4.13306747e-05,6.18303023,-3.62580201,-1,-0.9894002758079492
4.60202923e+02,3.59979158e+01,-5.45683375e-06,3.85010554,2.46398142,-4.84509848,7.50949397e-01,4.13306747e-05,6.19292193,-3.59685315,-1,-0.9890064927075792
4.73972298e+02,3.59978414e+01,-5.37448288e-06,3.85631805,2.45258902,-4.84509848,7.50949397e-01,4.13306747e-05,6.20287326,-3.56774406,-1,-0.9886030968361178
4.88074784e+02,3.59977664e+01,-5.28895146e-06,3.86260027,2.44098586,-4.84509848,7.50949397e-01,4.13306747e-05,6.21287834,-3.53848905,-1,-0.9881899419449377
5.02516783e+02,3.59976909e+01,-5.20047708e-06,3.86895081,2.42917900,-4.84509847,7.50949397e-01,4.13306747e-05,6.22293016,-3.50910899,-1,-0.9877668404772058
5.17302355e+02,3.59976149e+01,-5.10937309e-06,3.87536993,2.41717184,-4.84509846,7.50949397e-01,4.13306747e-05,6.23302368,-3.47961577,-1,-0.9873336734887261
5.32436192e+02,3.59975385e+01,-5.01603247e-06,3.88185720,2.40496949,-4.84509847,7.50949398e-01,4.13306747e-05,6.24315364,-3.45002568,-1,-0.9868903035198517
5.47926541e+02,3.59974618e+01,-4.92082765e-06,3.88840917,2.39258289,-4.84509847,7.50949398e-01,4.13306747e-05,6.25331568,-3.42034985,-1,-0.9864364889615223
5.63782918e+02,3.59973848e+01,-4.82416327e-06,3.89502159,2.38002455,-4.84509847,7.50949398e-01,4.13306746e-05,6.26350973,-3.39058803,-1,-0.9859719510272924
5.80015699e+02,3.59973076e+01,-4.72641425e-06,3.90169036,2.36730680,-4.84509848,7.50949398e-01,4.13306746e-05,6.27373439,-3.36074786,-1,-0.9854963857356406
5.96639567e+02,3.59972301e+01,-4.62799104e-06,3.90840903,2.35444600,-4.84509848,7.50949398e-01,4.13306746e-05,6.28398790,-3.33083515,-1,-0.9850093629245892
6.13672445e+02,3.59971524e+01,-4.52929057e-06,3.91516958,2.34146165,-4.84509848,7.50949398e-01,4.13306747e-05,6.29427458,-3.30084044,-1,-0.9845103575111767
6.31133628e+02,3.59970745e+01,-4.43067108e-06,3.92196435,2.32837216,-4.84509848,7.50949398e-01,4.13306747e-05,6.30459746,-3.27075895,-1,-0.9839988042175063
6.49045878e+02,3.59969963e+01,-4.33244676e-06,3.92878677,2.31519313,-4.84509848,7.50949398e-01,4.13306746e-05,6.31495699,-3.24059598,-1,-0.983474036194369
6.67426267e+02,3.59969179e+01,-4.23487165e-06,3.93563132,2.30193786,-4.84509849,7.50949398e-01,4.13306746e-05,6.32535667,-3.21034928,-1,-0.9829355532902099
6.86292131e+02,3.59968392e+01,-4.13814330e-06,3.94249377,2.28861679,-4.84509849,7.50949398e-01,4.13306746e-05,6.33579681,-3.18002990,-1,-0.9823828476191715
7.05663409e+02,3.59967603e+01,-4.04240447e-06,3.94937006,2.27523906,-4.84509850,7.50949398e-01,4.13306746e-05,6.34627460,-3.14965754,-1,-0.9818153350363468
7.25561010e+02,3.59966811e+01,-3.94776604e-06,3.95625621,2.26181317,-4.84509850,7.50949399e-01,4.13306745e-05,6.35679124,-3.11924999,-1,-0.9812324029791265
7.46008390e+02,3.59966017e+01,-3.85434961e-06,3.96314768,2.24834795,-4.84509849,7.50949399e-01,4.13306745e-05,6.36734627,-3.08882632,-1,-0.9806333642664613
7.67031156e+02,3.59965220e+01,-3.76221417e-06,3.97003991,2.23485136,-4.84509850,7.50949400e-01,4.13306744e-05,6.37793723,-3.05841992,-1,-0.9800174687003154
7.88656408e+02,3.59964419e+01,-3.67139410e-06,3.97692830,2.22133065,-4.84509852,7.50949400e-01,4.13306744e-05,6.38856244,-3.02805913,-1,-0.979383922342829
8.10913755e+02,3.59963616e+01,-3.58189170e-06,3.98380827,2.20779193,-4.84509853,7.50949401e-01,4.13306743e-05,6.39921505,-2.99779164,-1,-0.9787318577509732
8.33835036e+02,3.59962808e+01,-3.49367172e-06,3.99067503,2.19424075,-4.84509854,7.50949401e-01,4.13306743e-05,6.40988317,-2.96766249,-1,-0.9780603421503008
8.57454356e+02,3.59961997e+01,-3.40668244e-06,3.99752327,2.18068285,-4.84509855,7.50949403e-01,4.13306741e-05,6.42055379,-2.93770292,-1,-0.9773683763802693
8.81807948e+02,3.59961197e+01,-3.16288415e-06,4.00434748,2.16712439,-4.84509856,7.50949403e-01,4.13306741e-05,6.43120628,-2.90793416,-1,-0.9766548989371713
9.06932319e+02,3.59960502e+01,-2.57199033e-06,4.01114232,2.15357214,-4.84509859,7.50949405e-01,4.13306738e-05,6.44181340,-2.87834994,-1,-0.9759188402900311
9.32863001e+02,3.59959934e+01,-2.00347064e-06,4.01790253,2.14003176,-4.84509862,7.50949404e-01,4.13306740e-05,6.45234680,-2.84889256,-1,-0.9751591594720578
9.59631440e+02,3.59959496e+01,-1.45753783e-06,4.02462448,2.12650917,-4.84509869,7.50949403e-01,4.13306741e-05,6.46277755,-2.81946763,-1,-0.9743749352223683
9.87251960e+02,3.59959191e+01,-9.34101323e-07,4.03131062,2.11300773,-4.84509887,7.50949406e-01,4.13306738e-05,6.47309687,-2.78992472,-1,-0.9735657478964643
1.01576670e+03,3.59959021e+01,-4.32971866e-07,4.03795376,2.09953475,-4.84509894,7.50949409e-01,4.13306734e-05,6.48329471,-2.76018770,-1,-0.972730362964919
1.04517845e+03,3.59958981e+01,-3.19942680e-08,4.04456132,2.08609086,-4.84509901,7.50949415e-01,4.13306728e-05,6.49341613,-2.73012525,-1,-0.9718686986902183
1.07550007e+03,3.59958974e+01,-2.23723576e-08,4.05113822,2.07267516,-4.84509868,7.50949425e-01,4.13306717e-05,6.50351472,-2.69969693,-1,-0.9709803783180864
1.10674423e+03,3.59958967e+01,-2.26726666e-08,4.05769014,2.05928768,-4.84509868,7.50949439e-01,4.13306703e-05,6.51364913,-2.66890240,-1,-0.9700650306606015
1.13892712e+03,3.59958959e+01,-2.29722549e-08,4.06422197,2.04592800,-4.84509871,7.50949454e-01,4.13306688e-05,6.52386169,-2.63776730,-1,-0.9691221814058096
1.17206852e+03,3.59958952e+01,-2.32731914e-08,4.07073728,2.03259707,-4.84509875,7.50949469e-01,4.13306672e-05,6.53417439,-2.60631298,-1,-0.9681512510669633
1.20619131e+03,3.59958944e+01,-2.35773740e-08,4.07723839,2.01929755,-4.84509880,7.50949487e-01,4.13306654e-05,6.54459688,-2.57455118,-1,-0.9671515693378545
1.24132117e+03,3.59958935e+01,-2.38866904e-08,4.08372683,2.00603387,-4.84509884,7.50949505e-01,4.13306634e-05,6.55512925,-2.54249142,-1,-0.9661223838817957
1.27748523e+03,3.59958927e+01,-2.42032856e-08,4.09020369,1.99281236,-4.84509890,7.50949525e-01,4.13306613e-05,6.56577086,-2.51013944,-1,-0.9650628998820292
1.31471191e+03,3.59958918e+01,-2.45296642e-08,4.09666979,1.97964079,-4.84509897,7.50949547e-01,4.13306590e-05,6.57652098,-2.47749852,-1,-0.9639722847291833
1.35302913e+03,3.59958908e+01,-2.48688499e-08,4.10312644,1.96652794,-4.84509915,7.50949573e-01,4.13306563e-05,6.58737646,-2.44457694,-1,-0.9628497204621864
1.39246338e+03,3.59958898e+01,-2.52245501e-08,4.10957545,1.95348333,-4.84509927,7.50949598e-01,4.13306538e-05,6.59833570,-2.41138158,-1,-0.9616944310141047
1.43303914e+03,3.59958888e+01,-2.56011558e-08,4.11601931,1.94051658,-4.84509950,7.50949624e-01,4.13306511e-05,6.60939608,-2.37792154,-1,-0.9605056992041706
1.47477810e+03,3.59958877e+01,-2.60037579e-08,4.12246133,1.92763689,-4.84509948,7.50949649e-01,4.13306485e-05,6.62055152,-2.34421071,-1,-0.9592828895891303
1.51769817e+03,3.59958866e+01,-2.64379288e-08,4.12890546,1.91485247,-4.84509961,7.50949674e-01,4.13306458e-05,6.63180033,-2.31025754,-1,-0.958025477466878
1.56181392e+03,3.59958854e+01,-2.69095683e-08,4.13535633,1.90216879,-4.84509968,7.50949684e-01,4.13306448e-05,6.64313723,-2.27607755,-1,-0.9567330359859519
1.60713667e+03,3.59958842e+01,-2.74243437e-08,4.14181895,1.88958777,-4.84509975,7.50949669e-01,4.13306463e-05,6.65455747,-2.24168748,-1,-0.9554052335088402
1.65367385e+03,3.59958829e+01,-2.79874492e-08,4.14829863,1.87710622,-4.84509982,7.50949634e-01,4.13306499e-05,6.66605697,-2.20709938,-1,-0.9540418523618048
1.70143150e+03,3.59958815e+01,-2.86029351e-08,4.15480088,1.86471469,-4.84509973,7.50949594e-01,4.13306540e-05,6.67762870,-2.17233746,-1,-0.9526427155933821
1.75041482e+03,3.59958801e+01,-2.92732958e-08,4.16133065,1.85239783,-4.84509965,7.50949559e-01,4.13306576e-05,6.68926940,-2.13741478,-1,-0.9512076708612518
1.80063924e+03,3.59958786e+01,-2.99995350e-08,4.16789254,1.84013477,-4.84509895,7.50949534e-01,4.13306602e-05,6.70097365,-2.10234856,-1,-0.9497362661188762
1.85211219e+03,3.59958770e+01,-3.07798408e-08,4.17448974,1.82789949,-4.84509892,7.50949517e-01,4.13306618e-05,6.71273683,-2.06715490,-1,-0.9482282836925175
1.90484644e+03,3.59958754e+01,-3.16103553e-08,4.18112437,1.81566381,-4.84509891,7.50949508e-01,4.13306627e-05,6.72455716,-2.03184110,-1,-0.9466833494645939
1.95886636e+03,3.59958736e+01,-3.24857200e-08,4.18779745,1.80339876,-4.84509892,7.50949503e-01,4.13306630e-05,6.73642774,-1.99642623,-1,-0.9451007494769633
2.01420217e+03,3.59958718e+01,-3.33987819e-08,4.19450862,1.79107693,-4.84509895,7.50949501e-01,4.13306629e-05,6.74834679,-1.96091203,-1,-0.9434795983863745
2.07089182e+03,3.59958699e+01,-3.43415105e-08,4.20125646,1.77867365,-4.84509901,7.50949502e-01,4.13306625e-05,6.76031085,-1.92530511,-1,-0.9418187843868578
2.12897985e+03,3.59958678e+01,-3.53050670e-08,4.20803855,1.76616839,-4.84509908,7.50949508e-01,4.13306616e-05,6.77231644,-1.88960913,-1,-0.9401170026078497
2.18851640e+03,3.59958657e+01,-3.62807200e-08,4.21485160,1.75354569,-4.84509913,7.50949515e-01,4.13306606e-05,6.78436202,-1.85382548,-1,-0.9383727841178268
2.24955730e+03,3.59958634e+01,-3.72601554e-08,4.22169180,1.74079517,-4.84509917,7.50949522e-01,4.13306597e-05,6.79644416,-1.81796168,-1,-0.9365844932876116
2.31216272e+03,3.59958611e+01,-3.82357458e-08,4.22855475,1.72791188,-4.84509916,7.50949532e-01,4.13306586e-05,6.80856163,-1.78202060,-1,-0.9347503673407832
2.37639679e+03,3.59958586e+01,-3.92009708e-08,4.23543580,1.71489598,-4.84509916,7.50949548e-01,4.13306569e-05,6.82071135,-1.74600610,-1,-0.932868527486384
2.44233574e+03,3.59958559e+01,-4.01505800e-08,4.24233030,1.70175128,-4.84509917,7.50949567e-01,4.13306549e-05,6.83289194,-1.70991948,-1,-0.9309367404445971
2.51005908e+03,3.59958532e+01,-4.10807130e-08,4.24923366,1.68848555,-4.84509918,7.50949587e-01,4.13306527e-05,6.84510145,-1.67376293,-1,-0.9289526768427574
2.57962459e+03,3.59958503e+01,-4.19893331e-08,4.25614132,1.67511133,-4.84509921,7.50949609e-01,4.13306504e-05,6.85733636,-1.63754006,-1,-0.9269146439233176
2.65110408e+03,3.59958472e+01,-4.28756088e-08,4.26304923,1.66164221,-4.84509927,7.50949612e-01,4.13306499e-05,6.86959638,-1.60124780,-1,-0.9248205378974325
2.72457171e+03,3.59958441e+01,-4.37400937e-08,4.26995393,1.64809290,-4.84509931,7.50949653e-01,4.13306455e-05,6.88187643,-1.56489414,-1,-0.922668186129247
2.80012017e+03,3.59958407e+01,-4.45843383e-08,4.27685221,1.63447859,-4.84509967,7.50949668e-01,4.13306438e-05,6.89417553,-1.52847877,-1,-0.9204548731169082
2.87784259e+03,3.59958372e+01,-4.54109846e-08,4.28374145,1.62081482,-4.84509989,7.50949684e-01,4.13306419e-05,6.90649259,-1.49200421,-1,-0.9181778704680592
2.95778239e+03,3.59958335e+01,-4.62237071e-08,4.29061980,1.60711730,-4.84509983,7.50949699e-01,4.13306401e-05,6.91882624,-1.45547608,-1,-0.9158359061243286
3.04001319e+03,3.59958297e+01,-4.70262692e-08,4.29748588,1.59339977,-4.84509962,7.50949718e-01,4.13306380e-05,6.93117568,-1.41889528,-1,-0.9134268232700252
3.12465701e+03,3.59958257e+01,-4.78227268e-08,4.30433837,1.57967455,-4.84509985,7.50949733e-01,4.13306363e-05,6.94353947,-1.38226668,-1,-0.9109470471340184
3.21176387e+03,3.59958214e+01,-4.86171457e-08,4.31117682,1.56595270,-4.84509997,7.50949749e-01,4.13306345e-05,6.95591742,-1.34558662,-1,-0.908395112300377
3.30138925e+03,3.59958170e+01,-4.94135830e-08,4.31800135,1.55224275,-4.84509983,7.50949768e-01,4.13306322e-05,6.96830577,-1.30886673,-1,-0.9057693933937333
3.39363358e+03,3.59958124e+01,-5.02156567e-08,4.32481180,1.53855206,-4.84509988,7.50949786e-01,4.13306300e-05,6.98070382,-1.27210536,-1,-0.9030669481565509
3.48859835e+03,3.59958076e+01,-5.10266373e-08,4.33160829,1.52488649,-4.84510004,7.50949806e-01,4.13306276e-05,6.99311056,-1.23530684,-1,-0.9002848032768966
3.58631238e+03,3.59958026e+01,-5.18492098e-08,4.33839138,1.51124974,-4.84510005,7.50949824e-01,4.13306255e-05,7.00552470,-1.19846969,-1,-0.8974221144267591
3.68685772e+03,3.59957973e+01,-5.26857618e-08,4.34516154,1.49764461,-4.84510007,7.50949843e-01,4.13306232e-05,7.01794543,-1.16159751,-1,-0.8944764778201092
3.79039009e+03,3.59957918e+01,-5.35386360e-08,4.35191892,1.48407381,-4.84510023,7.50949864e-01,4.13306206e-05,7.03037257,-1.12469004,-1,-0.8914433313903968
