star_age,star_mass,star_mdot,log_Teff,log_R,log_surf_z,surface_h1,surface_he3,log_center_T,log_center_Rho,phase,x
3.87024407e+02,1.74999678e+02,-7.87569362e-07,4.62620167,1.52607528,-4.84509850,7.50949421e-01,4.13320760e-05,7.40782245,-6.26043846e-01,-1,-1.0
3.94385587e+02,1.74999673e+02,-7.86998282e-07,4.62681954,1.52471167,-4.84509851,7.50949421e-01,4.13322856e-05,7.40889226,-6.22848086e-01,-1,-0.9993363929125859
4.01746766e+02,1.74999667e+02,-7.86427202e-07,4.62743740,1.52334806,-4.84509851,7.50949422e-01,4.13324951e-05,7.40996207,-6.19652327e-01,-1,-0.9986727859153214
4.09107945e+02,1.74999661e+02,-7.85856122e-07,4.62805527,1.52198445,-4.84509851,7.50949422e-01,4.13327046e-05,7.41103187,-6.16456568e-01,-1,-0.9980091789180568
4.16469125e+02,1.74999655e+02,-7.85285042e-07,4.62867314,1.52062084,-4.84509851,7.50949422e-01,4.13329141e-05,7.41210168,-6.13260808e-01,-1,-0.9973455718306428
4.23830304e+02,1.74999650e+02,-7.84713962e-07,4.62929101,1.51925723,-4.84509851,7.50949422e-01,4.13331237e-05,7.41317149,-6.10065049e-01,-1,-0.9966819648333782
4.31191484e+02,1.74999644e+02,-7.84142882e-07,4.62990888,1.51789362,-4.84509851,7.50949423e-01,4.13333332e-05,7.41424129,-6.06869290e-01,-1,-0.996018357745964
4.38552663e+02,1.74999638e+02,-7.83571802e-07,4.63052675,1.51653001,-4.84509851,7.50949423e-01,4.13335427e-05,7.41531110,-6.03673531e-01,-1,-0.9953547507486995
4.45913842e+02,1.74999632e+02,-7.83000722e-07,4.63114462,1.51516640,-4.84509851,7.50949423e-01,4.13337523e-05,7.41638091,-6.00477771e-01,-1,-0.994691143751435
4.53275022e+02,1.74999627e+02,-7.82429642e-07,4.63176248,1.51380279,-4.84509851,7.50949423e-01,4.13339618e-05,7.41745071,-5.97282012e-01,-1,-0.9940275366640209
4.60636201e+02,1.74999621e+02,-7.81858563e-07,4.63238035,1.51243918,-4.84509851,7.50949424e-01,4.13341713e-05,7.41852052,-5.94086253e-01,-1,-0.9933639296667564
4.68599745e+02,1.74999615e+02,-7.81171045e-07,4.63303316,1.51100531,-4.84509851,7.50949424e-01,4.13344817e-05,7.41966093,-5.90678778e-01,-1,-0.9926460197339285
4.77203640e+02,1.74999608e+02,-7.80359746e-07,4.63372310,1.50949674,-4.84509851,7.50949424e-01,4.13348993e-05,7.42087641,-5.87046236e-01,-1,-0.9918703824446126
4.85807535e+02,1.74999601e+02,-7.79548448e-07,4.63441304,1.50798817,-4.84509851,7.50949425e-01,4.13353168e-05,7.42209189,-5.83413694e-01,-1,-0.9910947451552966
4.94411431e+02,1.74999595e+02,-7.78737150e-07,4.63510298,1.50647960,-4.84509851,7.50949425e-01,4.13357344e-05,7.42330736,-5.79781152e-01,-1,-0.9903191077758311
5.03015326e+02,1.74999588e+02,-7.77925851e-07,4.63579292,1.50497104,-4.84509851,7.50949425e-01,4.13361520e-05,7.42452284,-5.76148610e-01,-1,-0.9895434704865151
5.11619221e+02,1.74999581e+02,-7.77114553e-07,4.63648286,1.50346247,-4.84509851,7.50949425e-01,4.13365696e-05,7.42573832,-5.72516067e-01,-1,-0.9887678331971992
5.20223117e+02,1.74999575e+02,-7.76303254e-07,4.63717280,1.50195390,-4.84509851,7.50949426e-01,4.13369872e-05,7.42695379,-5.68883525e-01,-1,-0.9879921958177338
5.28827012e+02,1.74999568e+02,-7.75491956e-07,4.63786274,1.50044533,-4.84509851,7.50949426e-01,4.13374047e-05,7.42816927,-5.65250983e-01,-1,-0.9872165585284178
5.38204627e+02,1.74999561e+02,-7.74664713e-07,4.63859664,1.49885170,-4.84509851,7.50949426e-01,4.13380432e-05,7.42947240,-5.61355447e-01,-1,-0.9863711707268642
5.47925695e+02,1.74999553e+02,-7.73830393e-07,4.63935005,1.49722030,-4.84509851,7.50949426e-01,4.13387797e-05,7.43081444,-5.57343168e-01,-1,-0.9854948207908438
5.57646762e+02,1.74999546e+02,-7.72996073e-07,4.64010347,1.49558889,-4.84509852,7.50949427e-01,4.13395162e-05,7.43215648,-5.53330890e-01,-1,-0.984618470944973
5.67367829e+02,1.74999538e+02,-7.72161753e-07,4.64085688,1.49395749,-4.84509852,7.50949427e-01,4.13402527e-05,7.43349852,-5.49318611e-01,-1,-0.9837421210991022
5.77088896e+02,1.74999531e+02,-7.71327432e-07,4.64161030,1.49232609,-4.84509852,7.50949427e-01,4.13409892e-05,7.43484055,-5.45306332e-01,-1,-0.9828657712532314
5.86809964e+02,1.74999523e+02,-7.70493112e-07,4.64236371,1.49069469,-4.84509852,7.50949427e-01,4.13417257e-05,7.43618259,-5.41294054e-01,-1,-0.981989421317211
5.96670082e+02,1.74999516e+02,-7.69671457e-07,4.64312448,1.48904950,-4.84509852,7.50949428e-01,4.13425354e-05,7.43753932,-5.37237734e-01,-1,-0.9811005360858297
6.07580152e+02,1.74999507e+02,-7.68945432e-07,4.64394076,1.48730020,-4.84509852,7.50949428e-01,4.13438978e-05,7.43900693,-5.32848870e-01,-1,-0.9801169981508541
6.18490223e+02,1.74999499e+02,-7.68219406e-07,4.64475705,1.48555090,-4.84509852,7.50949428e-01,4.13452602e-05,7.44047454,-5.28460005e-01,-1,-0.9791334601257289
6.29400293e+02,1.74999491e+02,-7.67493381e-07,4.64557333,1.48380160,-4.84509852,7.50949428e-01,4.13466226e-05,7.44194216,-5.24071140e-01,-1,-0.9781499221907533
6.40310363e+02,1.74999482e+02,-7.66767356e-07,4.64638962,1.48205230,-4.84509852,7.50949428e-01,4.13479850e-05,7.44340977,-5.19682275e-01,-1,-0.9771663842557776
6.51220434e+02,1.74999474e+02,-7.66041330e-07,4.64720590,1.48030300,-4.84509852,7.50949428e-01,4.13493474e-05,7.44487738,-5.15293411e-01,-1,-0.9761828462306524
6.62130504e+02,1.74999466e+02,-7.65315305e-07,4.64802219,1.47855370,-4.84509852,7.50949428e-01,4.13507098e-05,7.44634499,-5.10904546e-01,-1,-0.9751993082956768
6.73162971e+02,1.74999457e+02,-7.64583654e-07,4.64884429,1.47679335,-4.84509852,7.50949428e-01,4.13521845e-05,7.44782459,-5.06479723e-01,-1,-0.9742047363258484
6.85493762e+02,1.74999448e+02,-7.63792326e-07,4.64972818,1.47491578,-4.84509852,7.50949428e-01,4.13548515e-05,7.44943123,-5.01673468e-01,-1,-0.9730931210276187
6.97824553e+02,1.74999439e+02,-7.63000997e-07,4.65061206,1.47303822,-4.84509852,7.50949427e-01,4.13575185e-05,7.45103788,-4.96867213e-01,-1,-0.9719815057293891
7.10155344e+02,1.74999429e+02,-7.62209669e-07,4.65149594,1.47116065,-4.84509852,7.50949427e-01,4.13601856e-05,7.45264453,-4.92060958e-01,-1,-0.9708698904311595
7.22486134e+02,1.74999420e+02,-7.61418340e-07,4.65237982,1.46928308,-4.84509853,7.50949427e-01,4.13628526e-05,7.45425117,-4.87254703e-01,-1,-0.9697582752230793
7.34816925e+02,1.74999410e+02,-7.60627012e-07,4.65326371,1.46740551,-4.84509853,7.50949426e-01,4.13655196e-05,7.45585782,-4.82448448e-01,-1,-0.9686466599248498
7.47147716e+02,1.74999401e+02,-7.59835684e-07,4.65414759,1.46552795,-4.84509853,7.50949426e-01,4.13681866e-05,7.45746447,-4.77642193e-01,-1,-0.9675350446266201
7.59478507e+02,1.74999392e+02,-7.59044355e-07,4.65503147,1.46365038,-4.84509853,7.50949426e-01,4.13708536e-05,7.45907111,-4.72835938e-01,-1,-0.9664234293283905
7.72706570e+02,1.74999382e+02,-7.57969799e-07,4.65595472,1.46169465,-4.84509853,7.50949425e-01,4.13746416e-05,7.46076206,-4.67775976e-01,-1,-0.9652309253603365
7.86481595e+02,1.74999371e+02,-7.56722593e-07,4.65690197,1.45969129,-4.84509853,7.50949424e-01,4.13791130e-05,7.46250439,-4.62561359e-01,-1,-0.9639891130124104
8.00256620e+02,1.74999361e+02,-7.55475386e-07,4.65784922,1.45768792,-4.84509853,7.50949423e-01,4.13835843e-05,7.46424672,-4.57346742e-01,-1,-0.9627473006644843
8.14031645e+02,1.74999351e+02,-7.54228179e-07,4.65879647,1.45568455,-4.84509853,7.50949423e-01,4.13880557e-05,7.46598905,-4.52132124e-01,-1,-0.9615054883165582
8.27806670e+02,1.74999340e+02,-7.52980973e-07,4.65974372,1.45368119,-4.84509853,7.50949422e-01,4.13925271e-05,7.46773138,-4.46917507e-01,-1,-0.9602636759686323
8.41581695e+02,1.74999330e+02,-7.51733766e-07,4.66069097,1.45167782,-4.84509853,7.50949421e-01,4.13969985e-05,7.46947372,-4.41702890e-01,-1,-0.9590218636207062
8.56473845e+02,1.74999319e+02,-7.50404641e-07,4.66168839,1.44957935,-4.84509853,7.50949420e-01,4.14035796e-05,7.47131755,-4.36183405e-01,-1,-0.9576793429532542
8.71538668e+02,1.74999308e+02,-7.49062854e-07,4.66269355,1.44746618,-4.84509853,7.50949418e-01,4.14104869e-05,7.47317708,-4.30616798e-01,-1,-0.9563212558920169
8.86603491e+02,1.74999296e+02,-7.47721067e-07,4.66369872,1.44535301,-4.84509853,7.50949416e-01,4.14173941e-05,7.47503661,-4.25050190e-01,-1,-0.9549631688307796
9.01668314e+02,1.74999285e+02,-7.46379279e-07,4.66470389,1.44323985,-4.84509854,7.50949415e-01,4.14243014e-05,7.47689614,-4.19483582e-01,-1,-0.9536050817695423
9.16733136e+02,1.74999274e+02,-7.45037492e-07,4.66570906,1.44112668,-4.84509854,7.50949413e-01,4.14312086e-05,7.47875567,-4.13916974e-01,-1,-0.9522469947984545
9.32890499e+02,1.74999262e+02,-7.43617532e-07,4.66675895,1.43892875,-4.84509854,7.50949411e-01,4.14410484e-05,7.48070713,-4.08074327e-01,-1,-0.9507904157444548
9.49199211e+02,1.74999250e+02,-7.42186742e-07,4.66781502,1.43671907,-4.84509854,7.50949408e-01,4.14512945e-05,7.48267134,-4.02193440e-01,-1,-0.9493201926457402
9.65507924e+02,1.74999238e+02,-7.40755952e-07,4.66887110,1.43450939,-4.84509854,7.50949406e-01,4.14615405e-05,7.48463554,-3.96312554e-01,-1,-0.9478499694568762
9.81816637e+02,1.74999226e+02,-7.39325162e-07,4.66992718,1.43229972,-4.84509854,7.50949403e-01,4.14717866e-05,7.48659975,-3.90431667e-01,-1,-0.946379746268012
9.98547574e+02,1.74999214e+02,-7.37929589e-07,4.67099885,1.43006138,-4.84509854,7.50949400e-01,4.14837714e-05,7.48859623,-3.84453772e-01,-1,-0.9448714597742327
1.01621064e+03,1.74999201e+02,-7.36611764e-07,4.67210495,1.42775978,-4.84509854,7.50949395e-01,4.14995948e-05,7.49066397,-3.78261716e-01,-1,-0.943279142267656
1.03387371e+03,1.74999188e+02,-7.35293939e-07,4.67321105,1.42545818,-4.84509854,7.50949391e-01,4.15154182e-05,7.49273172,-3.72069660e-01,-1,-0.9416868244004809
1.05153678e+03,1.74999175e+02,-7.33976114e-07,4.67431714,1.42315657,-4.84509854,7.50949386e-01,4.15312415e-05,7.49479946,-3.65877604e-01,-1,-0.940094506533306
1.06919985e+03,1.74999162e+02,-7.32658289e-07,4.67542324,1.42085497,-4.84509855,7.50949382e-01,4.15470649e-05,7.49686721,-3.59685548e-01,-1,-0.9385021886661309
1.08727167e+03,1.74999149e+02,-7.31309882e-07,4.67654225,1.41852904,-4.84509855,7.50949377e-01,4.15653201e-05,7.49896251,-3.53410656e-01,-1,-0.9368730221691193
1.10655644e+03,1.74999135e+02,-7.29870724e-07,4.67769959,1.41613091,-4.84509855,7.50949369e-01,4.15907916e-05,7.50113959,-3.46889954e-01,-1,-0.9351345087716544
1.12584121e+03,1.74999121e+02,-7.28431566e-07,4.67885693,1.41373278,-4.84509855,7.50949362e-01,4.16162631e-05,7.50331668,-3.40369252e-01,-1,-0.9333959953741895
1.14512599e+03,1.74999107e+02,-7.26992408e-07,4.68001427,1.41133465,-4.84509855,7.50949354e-01,4.16417346e-05,7.50549376,-3.33848550e-01,-1,-0.931657481075229
1.16441076e+03,1.74999093e+02,-7.25553250e-07,4.68117160,1.40893652,-4.84509855,7.50949346e-01,4.16672061e-05,7.50767085,-3.27327847e-01,-1,-0.9299189676777642
1.18369553e+03,1.74999079e+02,-7.24114092e-07,4.68232894,1.40653839,-4.84509855,7.50949339e-01,4.16926776e-05,7.50984793,-3.20807145e-01,-1,-0.9281804542802993
1.20412717e+03,1.74999064e+02,-7.22151231e-07,4.68351722,1.40407777,-4.84509855,7.50949329e-01,4.17261919e-05,7.51209767,-3.14066552e-01,-1,-0.926338551064851
1.22507170e+03,1.74999049e+02,-7.19954165e-07,4.68471934,1.40158921,-4.84509855,7.50949317e-01,4.17633028e-05,7.51437990,-3.07227623e-01,-1,-0.9244504110451046
1.24601623e+03,1.74999034e+02,-7.17757099e-07,4.68592147,1.39910065,-4.84509856,7.50949306e-01,4.18004138e-05,7.51666213,-3.00388693e-01,-1,-0.9225622710253581
1.26696075e+03,1.74999019e+02,-7.15560033e-07,4.68712359,1.39661208,-4.84509856,7.50949295e-01,4.18375248e-05,7.51894436,-2.93549763e-01,-1,-0.9206741319071072
1.28824297e+03,1.74999004e+02,-7.13350676e-07,4.68833560,1.39410492,-4.84509856,7.50949282e-01,4.18777569e-05,7.52124662,-2.86650731e-01,-1,-0.9187555492847687
1.31068484e+03,1.74998989e+02,-7.11099107e-07,4.68958157,1.39153389,-4.84509856,7.50949266e-01,4.19287074e-05,7.52361767,-2.79545300e-01,-1,-0.916732424733158
1.33312672e+03,1.74998973e+02,-7.08847539e-07,4.69082754,1.38896286,-4.84509856,7.50949251e-01,4.19796580e-05,7.52598873,-2.72439868e-01,-1,-0.9147092992800517
1.35556860e+03,1.74998957e+02,-7.06595970e-07,4.69207351,1.38639183,-4.84509856,7.50949235e-01,4.20306086e-05,7.52835978,-2.65334437e-01,-1,-0.9126861738269454
1.37840772e+03,1.74998941e+02,-7.04419913e-07,4.69332972,1.38380215,-4.84509856,7.50949217e-01,4.20866240e-05,7.53075024,-2.58170856e-01,-1,-0.910627237365359
1.40245179e+03,1.74998924e+02,-7.02472896e-07,4.69461698,1.38115593,-4.84509856,7.50949195e-01,4.21580026e-05,7.53319957,-2.50830897e-01,-1,-0.9084596751997441
1.42649586e+03,1.74998907e+02,-7.00525880e-07,4.69590425,1.37850970,-4.84509857,7.50949172e-01,4.22293812e-05,7.53564889,-2.43490937e-01,-1,-0.9062921130341293
1.45053993e+03,1.74998891e+02,-6.98578864e-07,4.69719152,1.37586348,-4.84509857,7.50949149e-01,4.23007597e-05,7.53809822,-2.36150978e-01,-1,-0.9041245508685145
1.47458400e+03,1.74998874e+02,-6.96631847e-07,4.69847878,1.37321726,-4.84509857,7.50949127e-01,4.23721383e-05,7.54054755,-2.28811019e-01,-1,-0.9019569887028996
1.50015607e+03,1.74998856e+02,-6.94556916e-07,4.69979566,1.37051470,-4.84509857,7.50949096e-01,4.24677683e-05,7.54305938,-2.21283237e-01,-1,-0.8996516780201219
1.52612724e+03,1.74998838e+02,-6.92448575e-07,4.70112028,1.36779742,-4.84509857,7.50949064e-01,4.25697325e-05,7.54558755,-2.13706398e-01,-1,-0.8973103886506952
1.55209841e+03,1.74998821e+02,-6.90340234e-07,4.70244490,1.36508015,-4.84509857,7.50949031e-01,4.26716966e-05,7.54811571,-2.06129560e-01,-1,-0.8949690992812686
1.57806957e+03,1.74998803e+02,-6.88231893e-07,4.70376952,1.36236287,-4.84509858,7.50948998e-01,4.27736608e-05,7.55064387,-1.98552721e-01,-1,-0.8926278108133374
1.60404074e+03,1.74998785e+02,-6.86123553e-07,4.70509413,1.35964559,-4.84509858,7.50948965e-01,4.28756250e-05,7.55317204,-1.90975882e-01,-1,-0.8902865214439107
1.63166849e+03,1.74998766e+02,-6.83118254e-07,4.70644558,1.35687180,-4.84509858,7.50948924e-01,4.30046433e-05,7.55576973,-1.83187596e-01,-1,-0.8877958921277814
1.65960350e+03,1.74998748e+02,-6.79946587e-07,4.70780201,1.35408751,-4.84509858,7.50948881e-01,4.31386797e-05,7.55838033,-1.75360090e-01,-1,-0.8852775634599614
1.68753851e+03,1.74998729e+02,-6.76774920e-07,4.70915844,1.35130323,-4.84509858,7.50948837e-01,4.32727160e-05,7.56099092,-1.67532584e-01,-1,-0.8827592347921414
1.71547351e+03,1.74998710e+02,-6.73603253e-07,4.71051487,1.34851895,-4.84509858,7.50948794e-01,4.34067523e-05,7.56360152,-1.59705079e-01,-1,-0.8802409070258168
1.74493621e+03,1.74998690e+02,-6.70487229e-07,4.71190487,1.34567238,-4.84509859,7.50948741e-01,4.35695043e-05,7.56627988,-1.51673515e-01,-1,-0.8775848577871954
1.77462030e+03,1.74998671e+02,-6.67379269e-07,4.71329974,1.34281679,-4.84509859,7.50948687e-01,4.37364178e-05,7.56896806,-1.43612379e-01,-1,-0.8749088503390093
1.80430440e+03,1.74998651e+02,-6.64271309e-07,4.71469461,1.33996119,-4.84509859,7.50948633e-01,4.39033313e-05,7.57165624,-1.35551243e-01,-1,-0.8722328419893278
1.83457789e+03,1.74998631e+02,-6.61323409e-07,4.71610299,1.33708149,-4.84509859,7.50948575e-01,4.40833586e-05,7.57437016,-1.27413401e-01,-1,-0.8695037003945346
1.86611980e+03,1.74998611e+02,-6.58719966e-07,4.71754044,1.33414989,-4.84509859,7.50948507e-01,4.42916074e-05,7.57713947,-1.19110485e-01,-1,-0.8666602113035767
1.89766170e+03,1.74998590e+02,-6.56116523e-07,4.71897788,1.33121829,-4.84509859,7.50948439e-01,4.44998561e-05,7.57990879,-1.10807570e-01,-1,-0.8638167231141143
1.92920361e+03,1.74998569e+02,-6.53513080e-07,4.72041533,1.32828669,-4.84509860,7.50948372e-01,4.47081049e-05,7.58267810,-1.02504655e-01,-1,-0.8609732340231564
1.96141371e+03,1.74998549e+02,-6.50869033e-07,4.72186685,1.32532905,-4.84509860,7.50948299e-01,4.49316940e-05,7.58547829,-9.41086467e-02,-1,-0.8580695079023013
1.99517401e+03,1.74998527e+02,-6.48130784e-07,4.72335102,1.32231098,-4.84509860,7.50948214e-01,4.51908727e-05,7.58835014,-8.54966634e-02,-1,-0.855026031944204
2.02893432e+03,1.74998505e+02,-6.45392535e-07,4.72483519,1.31929292,-4.84509860,7.50948129e-01,4.54500514e-05,7.59122199,-7.68846801e-02,-1,-0.8519825550846113
2.06269462e+03,1.74998484e+02,-6.42654286e-07,4.72631936,1.31627485,-4.84509860,7.50948045e-01,4.57092301e-05,7.59409385,-6.82726968e-02,-1,-0.848939079126514
2.09645493e+03,1.74998462e+02,-6.39916037e-07,4.72780354,1.31325679,-4.84509861,7.50947960e-01,4.59684089e-05,7.59696570,-5.96607135e-02,-1,-0.8458956022669213
2.13200933e+03,1.74998440e+02,-6.36140185e-07,4.72932276,1.31016847,-4.84509861,7.50947864e-01,4.62636252e-05,7.59992816,-5.08281394e-02,-1,-0.8426903889955768
2.16801615e+03,1.74998417e+02,-6.32102687e-07,4.73085082,1.30706243,-4.84509861,7.50947764e-01,4.65679289e-05,7.60291347,-4.19399401e-02,-1,-0.8394443902634111
2.20402296e+03,1.74998395e+02,-6.28065189e-07,4.73237888,1.30395640,-4.84509861,7.50947665e-01,4.68722326e-05,7.60589878,-3.30517409e-02,-1,-0.836198392432741
2.24038122e+03,1.74998372e+02,-6.24052872e-07,4.73391672,1.30083277,-4.84509862,7.50947563e-01,4.71832841e-05,7.60890306,-2.41102194e-02,-1,-0.8329207115416277
2.27834595e+03,1.74998349e+02,-6.20155661e-07,4.73549922,1.29762871,-4.84509862,7.50947451e-01,4.75251802e-05,7.61199409,-1.49249582e-02,-1,-0.8294982080979186
2.31631069e+03,1.74998326e+02,-6.16258451e-07,4.73708172,1.29442465,-4.84509862,7.50947339e-01,4.78670763e-05,7.61508512,-5.73969695e-03,-1,-0.826075703752714
2.35427543e+03,1.74998303e+02,-6.12361240e-07,4.73866422,1.29122059,-4.84509862,7.50947228e-01,4.82089724e-05,7.61817614,3.44556426e-03,-1,-0.8226531994075094
2.39400538e+03,1.74998279e+02,-6.08458716e-07,4.74029336,1.28793193,-4.84509863,7.50947105e-01,4.85822197e-05,7.62136062,1.29158717e-02,-1,-0.8190715621696469
2.43383941e+03,1.74998255e+02,-6.04555879e-07,4.74192524,1.28463829,-4.84509863,7.50946983e-01,4.89573155e-05,7.62455062,2.24029859e-02,-1,-0.8154805421662963
2.47367343e+03,1.74998231e+02,-6.00653042e-07,4.74355713,1.28134464,-4.84509863,7.50946860e-01,4.93324113e-05,7.62774061,3.18901001e-02,-1,-0.811889523064441
2.51533441e+03,1.74998206e+02,-5.97249788e-07,4.74524058,1.27796124,-4.84509863,7.50946728e-01,4.97354854e-05,7.63102612,4.16687036e-02,-1,-0.808133804335023
2.55717422e+03,1.74998182e+02,-5.93895435e-07,4.74692907,1.27456906,-4.84509864,7.50946595e-01,5.01412980e-05,7.63432098,5.14758384e-02,-1,-0.8043619641610211
2.59901403e+03,1.74998157e+02,-5.90541081e-07,4.74861756,1.27117688,-4.84509864,7.50946462e-01,5.05471106e-05,7.63761583,6.12829732e-02,-1,-0.8005901239870192
2.64192970e+03,1.74998132e+02,-5.87109563e-07,4.75033033,1.26774099,-4.84509864,7.50946325e-01,5.09641994e-05,7.64096066,7.12431249e-02,-1,-0.7967212955148009
2.68618618e+03,1.74998107e+02,-5.83581876e-07,4.75207335,1.26425062,-4.84509864,7.50946184e-01,5.13953412e-05,7.64436775,8.13939767e-02,-1,-0.7927315936202677
2.73044267e+03,1.74998081e+02,-5.80054190e-07,4.75381637,1.26076026,-4.84509865,7.50946043e-01,5.18264831e-05,7.64777485,9.15448285e-02,-1,-0.7887418908242388
2.77469916e+03,1.74998056e+02,-5.76526504e-07,4.75555939,1.25726990,-4.84509865,7.50945902e-01,5.22576250e-05,7.65118195,1.01695680e-01,-1,-0.7847521880282101
2.82022401e+03,1.74998030e+02,-5.72104891e-07,4.75732244,1.25373899,-4.84509865,7.50945758e-01,5.26962633e-05,7.65464367,1.12016517e-01,-1,-0.7806481431449899
2.86695060e+03,1.74998004e+02,-5.66836298e-07,4.75910446,1.25016966,-4.84509866,7.50945612e-01,5.31420044e-05,7.65815716,1.22498412e-01,-1,-0.7764357619378066
2.91367719e+03,1.74997978e+02,-5.61567706e-07,4.76088648,1.24660033,-4.84509866,7.50945467e-01,5.35877455e-05,7.66167064,1.32980306e-01,-1,-0.7722233807306235
2.96114774e+03,1.74997952e+02,-5.56372461e-07,4.76268630,1.24299969,-4.84509866,7.50945321e-01,5.40339517e-05,7.66521843,1.43567368e-01,-1,-0.7679439318619034
3.00998857e+03,1.74997925e+02,-5.51312316e-07,4.76451892,1.23934139,-4.84509867,7.50945175e-01,5.44810146e-05,7.66882942,1.54348137e-01,-1,-0.763540952863538
3.05882940e+03,1.74997899e+02,-5.46252171e-07,4.76635153,1.23568308,-4.84509867,7.50945029e-01,5.49280774e-05,7.67244040,1.65128906e-01,-1,-0.7591379738651727
3.10873249e+03,1.74997872e+02,-5.41195225e-07,4.76820609,1.23198537,-4.84509867,7.50944884e-01,5.53717949e-05,7.67609558,1.76045817e-01,-1,-0.7546392326025132
