star_age,star_mass,star_mdot,log_L,log_Teff,log_R,log_surf_z,v_wind_Km_per_s,log_center_T,log_center_Rho,phase,x
2.08171627e+04,2.49999982e-01,-7.03376596e-13,8.80875259e-02,3.50967768,5.47365556e-01,-1.34509847,8.66033463e-06,5.80117957,-1.22037280,-1,-1.0
2.19987942e+04,2.49999981e-01,-6.90520397e-13,8.26360970e-02,3.50959458,5.44806039e-01,-1.34509847,8.56421583e-06,5.80354709,-1.21329860,-1,-0.9999988955461273
2.32476079e+04,2.49999981e-01,-6.77437373e-13,7.69779639e-02,3.50950726,5.42151608e-01,-1.34509847,8.46484082e-06,5.80600578,-1.20595307,-1,-0.9999977282980238
2.45666982e+04,2.49999980e-01,-6.64137259e-13,7.11131268e-02,3.50941565,5.39402413e-01,-1.34509847,8.36216722e-06,5.80855314,-1.19834130,-1,-0.9999964953633989
2.59591213e+04,2.49999979e-01,-6.50642463e-13,6.50415753e-02,3.50931977,5.36558400e-01,-1.34509847,8.25627149e-06,5.81118842,-1.19046678,-1,-0.9999951938856664
2.74279014e+04,2.49999978e-01,-6.36970907e-13,5.87614446e-02,3.50921941,5.33619059e-01,-1.34509847,8.14718122e-06,5.81391370,-1.18232328,-1,-0.9999938210381503
2.89760541e+04,2.49999977e-01,-6.23139502e-13,5.22736924e-02,3.50911455,5.30584890e-01,-1.34509847,8.03489537e-06,5.81672794,-1.17391252,-1,-0.9999923740022131
3.06176934e+04,2.49999976e-01,-6.09153496e-13,4.55540935e-02,3.50900481,5.27444575e-01,-1.34509847,7.91908490e-06,5.81964093,-1.16520617,-1,-0.9999908395857029
3.23512485e+04,2.49999975e-01,-5.95044863e-13,3.86148686e-02,3.50889025,5.24204079e-01,-1.34509847,7.80003776e-06,5.82264873,-1.15621561,-1,-0.9999892192568238
3.41750570e+04,2.49999974e-01,-5.80838114e-13,3.14712367e-02,3.50877131,5.20870159e-01,-1.34509847,7.67794721e-06,5.82574405,-1.14696283,-1,-0.9999875145693973
3.61105655e+04,2.49999973e-01,-5.66543501e-13,2.40858492e-02,3.50864709,5.17425898e-01,-1.34509847,7.55236250e-06,5.82894319,-1.13739843,-1,-0.9999857054775961
3.81477819e+04,2.49999972e-01,-5.52191148e-13,1.64917366e-02,3.50851830,5.13886428e-01,-1.34509847,7.42378491e-06,5.83223210,-1.12756504,-1,-0.9999838013208919
4.03035759e+04,2.49999970e-01,-5.37800364e-13,8.66732909e-03,3.50838435,5.10242119e-01,-1.34509847,7.29196379e-06,5.83561928,-1.11743435,-1,-0.9999817863314201
4.25744747e+04,2.49999969e-01,-5.23393264e-13,6.28515129e-04,3.50824534,5.06500729e-01,-1.34509847,7.15712118e-06,5.83909824,-1.10702812,-1,-0.9999796637551565
4.49799700e+04,2.49999968e-01,-5.08991806e-13,-7.64569196e-03,3.50810086,5.02652583e-01,-1.34509847,7.01903986e-06,5.84267806,-1.09631736,-1,-0.9999774153734909
4.75126251e+04,2.49999967e-01,-4.94623947e-13,-1.60901582e-02,3.50796150,4.98709067e-01,-1.34509847,6.87906448e-06,5.84634806,-1.08533920,-1,-0.9999750481373996
5.01905437e+04,2.49999965e-01,-4.80342166e-13,-2.47993892e-02,3.50780727,4.94662925e-01,-1.34509847,6.73582664e-06,5.85011524,-1.07406812,-1,-0.9999725451256157
5.30201036e+04,2.49999964e-01,-4.66097470e-13,-3.37275789e-02,3.50764831,4.90516737e-01,-1.34509847,6.58928059e-06,5.85397723,-1.06251237,-1,-0.999969900376902
5.60040923e+04,2.49999963e-01,-4.51948743e-13,-4.28633919e-02,3.50748529,4.86274870e-01,-1.34509847,6.44023690e-06,5.85793019,-1.05068355,-1,-0.9999671112858225
5.91526545e+04,2.49999961e-01,-4.37918796e-13,-5.22064523e-02,3.50731829,4.81937350e-01,-1.34509847,6.28882266e-06,5.86197426,-1.03858167,-1,-0.9999641683702728
6.24762639e+04,2.49999960e-01,-4.24028991e-13,-6.17380711e-02,3.50715170,4.77504719e-01,-1.34509847,6.13550954e-06,5.86610920,-1.02620191,-1,-0.999961061840637
6.59902481e+04,2.49999958e-01,-4.10319775e-13,-7.14948235e-02,3.50697712,4.72975500e-01,-1.34509847,5.97993970e-06,5.87033671,-1.01354233,-1,-0.9999577773704291
6.96988551e+04,2.49999957e-01,-3.96771833e-13,-8.14484505e-02,3.50679880,4.68355335e-01,-1.34509847,5.82216510e-06,5.87465117,-1.00061907,-1,-0.999954310989105
7.36129063e+04,2.49999955e-01,-3.83419702e-13,-9.15947635e-02,3.50661702,4.63645736e-01,-1.34509847,5.66267531e-06,5.87905156,-9.87436396e-01,-1,-0.9999506525820585
7.77439210e+04,2.49999954e-01,-3.70282542e-13,-1.01925928e-01,3.50643226,4.58849675e-01,-1.34509847,5.50164384e-06,5.88353480,-9.74003243e-01,-1,-0.9999467913823666
8.21037746e+04,2.49999952e-01,-3.57376530e-13,-1.12435187e-01,3.50624498,4.53969589e-01,-1.34509847,5.33936880e-06,5.88809888,-9.60329119e-01,-1,-0.9999427162902647
8.67052381e+04,2.49999951e-01,-3.44719710e-13,-1.23113639e-01,3.50605575,4.49008835e-01,-1.34509847,5.17616503e-06,5.89274076,-9.46421381e-01,-1,-0.9999384153688836
9.15680314e+04,2.49999949e-01,-3.32334249e-13,-1.33953531e-01,3.50586541,4.43969576e-01,-1.34509847,5.01238384e-06,5.89745857,-9.32286254e-01,-1,-0.9999338701863182
9.67006082e+04,2.49999947e-01,-3.20243931e-13,-1.44929023e-01,3.50567722,4.38858211e-01,-1.34509847,4.84878147e-06,5.90224644,-9.17940523e-01,-1,-0.9999290728410173
1.02116442e+05,2.49999946e-01,-3.08429399e-13,-1.56061547e-01,3.50548311,4.33680155e-01,-1.34509847,4.68449241e-06,5.90709892,-9.03395785e-01,-1,-0.9999240107394953
1.07830371e+05,2.49999944e-01,-2.96917821e-13,-1.67318610e-01,3.50528810,4.28441647e-01,-1.34509847,4.52049466e-06,5.91201064,-8.88669551e-01,-1,-0.9999186700127014
1.13858393e+05,2.49999942e-01,-2.85722312e-13,-1.78682356e-01,3.50509351,4.23148955e-01,-1.34509847,4.35725225e-06,5.91697589,-8.73776421e-01,-1,-0.9999130357077232
1.20235377e+05,2.49999941e-01,-2.74882915e-13,-1.90093830e-01,3.50491122,4.17807800e-01,-1.34509847,4.19641652e-06,5.92198968,-8.58737983e-01,-1,-0.9999070752330107
1.26961582e+05,2.49999939e-01,-2.64400853e-13,-2.01587429e-01,3.50472620,4.12431029e-01,-1.34509847,4.03712190e-06,5.92703975,-8.43590660e-01,-1,-0.9999007883464804
1.34055577e+05,2.49999937e-01,-2.54275256e-13,-2.13124066e-01,3.50454254,4.07030039e-01,-1.34509847,3.88007584e-06,5.93211531,-8.28364815e-01,-1,-0.9998941576919567
1.41557793e+05,2.49999935e-01,-2.44517023e-13,-2.24682351e-01,3.50435838,4.01619208e-01,-1.34509847,3.72544824e-06,5.93720289,-8.13103558e-01,-1,-0.9998871454791683
1.49476114e+05,2.49999933e-01,-2.35145659e-13,-2.36213235e-01,3.50417719,3.96216146e-01,-1.34509847,3.57435929e-06,5.94228535,-7.97857147e-01,-1,-0.9998797443390548
1.57828886e+05,2.49999931e-01,-2.26172971e-13,-2.47674594e-01,3.50399989,3.90840080e-01,-1.34509847,3.42749046e-06,5.94734477,-7.82676170e-01,-1,-0.9998719371238751
1.66670324e+05,2.49999929e-01,-2.17653409e-13,-2.58987013e-01,3.50383337,3.85516906e-01,-1.34509847,3.28949784e-06,5.95235708,-7.67633831e-01,-1,-0.9998636731596531
1.76003167e+05,2.49999927e-01,-2.09559785e-13,-2.70141270e-01,3.50366725,3.80272023e-01,-1.34509847,3.16343000e-06,5.95729771,-7.52803520e-01,-1,-0.9998549498862848
1.85855935e+05,2.49999925e-01,-2.01918038e-13,-2.81057332e-01,3.50350700,3.75134495e-01,-1.34509847,3.04317428e-06,5.96213964,-7.38264543e-01,-1,-0.9998457406465389
1.96284260e+05,2.49999923e-01,-1.94766560e-13,-2.91652255e-01,3.50335353,3.70143961e-01,-1.34509847,2.92957007e-06,5.96684545,-7.24136420e-01,-1,-0.9998359934419895
2.07311540e+05,2.49999921e-01,-1.88118065e-13,-3.01797772e-01,3.50322279,3.65332684e-01,-1.34509847,2.82422535e-06,5.97138452,-7.10507531e-01,-1,-0.9998256864028645
2.18967055e+05,2.49999919e-01,-1.81992434e-13,-3.11518218e-01,3.50309159,3.60734866e-01,-1.34509847,2.72599027e-06,5.97572446,-6.97474877e-01,-1,-0.9998147921615714
2.31292921e+05,2.49999917e-01,-1.76353645e-13,-3.20723409e-01,3.50296534,3.56384766e-01,-1.34509847,2.63489640e-06,5.97983189,-6.85141310e-01,-1,-0.9998032713528942
2.44331938e+05,2.49999915e-01,-1.71225686e-13,-3.29339996e-01,3.50284907,3.52309006e-01,-1.34509847,2.55179381e-06,5.98368180,-6.73581026e-01,-1,-0.9997910839722917
2.58123091e+05,2.49999912e-01,-1.66592441e-13,-3.37338330e-01,3.50274261,3.48522766e-01,-1.34509847,2.47651683e-06,5.98725940,-6.62836778e-01,-1,-0.9997781935810484
2.72693653e+05,2.49999910e-01,-1.62420463e-13,-3.44723739e-01,3.50264554,3.45024193e-01,-1.34509847,2.40861739e-06,5.99056610,-6.52905110e-01,-1,-0.9997645746874855
2.88139041e+05,2.49999907e-01,-1.58697668e-13,-3.51484295e-01,3.50255737,3.41820256e-01,-1.34509847,2.34792761e-06,5.99359537,-6.43804881e-01,-1,-0.9997501381067134
3.04461316e+05,2.49999905e-01,-1.55349153e-13,-3.57709343e-01,3.50247690,3.38868672e-01,-1.34509847,2.29330772e-06,5.99638674,-6.35418031e-01,-1,-0.9997348819123452
3.21725490e+05,2.49999902e-01,-1.52327155e-13,-3.63467094e-01,3.50240311,3.36137384e-01,-1.34509847,2.24397460e-06,5.99897064,-6.27654905e-01,-1,-0.9997187453386045
3.39909658e+05,2.49999900e-01,-1.49550456e-13,-3.68883458e-01,3.50233432,3.33566778e-01,-1.34509847,2.19862865e-06,6.00140293,-6.20343388e-01,-1,-0.9997017488597782
3.59257377e+05,2.49999897e-01,-1.46992119e-13,-3.74007011e-01,3.50227507,3.31123505e-01,-1.34509847,2.15717512e-06,6.00371557,-6.13393714e-01,-1,-0.9996836648266612
3.79663508e+05,2.49999894e-01,-1.44553978e-13,-3.79046092e-01,3.50221240,3.28729315e-01,-1.34509847,2.11734011e-06,6.00598238,-6.06581529e-01,-1,-0.9996645915111557
4.01197299e+05,2.49999891e-01,-1.42166840e-13,-3.84096700e-01,3.50215011,3.26328588e-01,-1.34509847,2.07834964e-06,6.00825586,-5.99749724e-01,-1,-0.999644464188158
4.23924323e+05,2.49999887e-01,-1.39774038e-13,-3.89281680e-01,3.50208671,3.23862898e-01,-1.34509847,2.03929358e-06,6.01059146,-5.92731919e-01,-1,-0.9996232215675332
4.47905112e+05,2.49999884e-01,-1.37312891e-13,-3.94726656e-01,3.50202058,3.21272656e-01,-1.34509847,1.99915837e-06,6.01304554,-5.85355406e-01,-1,-0.9996008070708967
4.73277217e+05,2.49999881e-01,-1.34709983e-13,-4.00591049e-01,3.50194982,3.18481996e-01,-1.34509847,1.95679862e-06,6.01569000,-5.77407665e-01,-1,-0.999577092131318
5.00126154e+05,2.49999877e-01,-1.31891316e-13,-4.07037260e-01,3.50187354,3.15411446e-01,-1.34509847,1.91113468e-06,6.01860059,-5.68661761e-01,-1,-0.9995519968182287
5.28390140e+05,2.49999874e-01,-1.28814018e-13,-4.14174841e-01,3.50179040,3.12008939e-01,-1.34509847,1.86150764e-06,6.02182653,-5.58965761e-01,-1,-0.9995255788793054
5.58136074e+05,2.49999870e-01,-1.25411841e-13,-4.22196790e-01,3.50169465,3.08189448e-01,-1.34509847,1.80672989e-06,6.02544865,-5.48078474e-01,-1,-0.9994977757850204
5.89575695e+05,2.49999866e-01,-1.21579878e-13,-4.31419733e-01,3.50158495,3.03797391e-01,-1.34509847,1.74539878e-06,6.02961488,-5.35551260e-01,-1,-0.9994683896259928
6.22627493e+05,2.49999862e-01,-1.17283985e-13,-4.42029315e-01,3.50145955,2.98743390e-01,-1.34509847,1.67714753e-06,6.03441049,-5.21129411e-01,-1,-0.9994374965884407
6.57330523e+05,2.49999858e-01,-1.12464725e-13,-4.54332349e-01,3.50131547,2.92880029e-01,-1.34509847,1.60131947e-06,6.03997608,-5.04388617e-01,-1,-0.9994050601682206
6.93720769e+05,2.49999854e-01,-1.07077690e-13,-4.68675647e-01,3.50115533,2.86028672e-01,-1.34509847,1.51792827e-06,6.04648264,-4.84811514e-01,-1,-0.999371046731608
7.31744237e+05,2.49999850e-01,-1.01128577e-13,-4.85329014e-01,3.50097168,2.78069293e-01,-1.34509847,1.42737373e-06,6.05404658,-4.62052042e-01,-1,-0.9993355067460138
7.71357722e+05,2.49999846e-01,-9.47301637e-14,-5.04374144e-01,3.50075971,2.68970665e-01,-1.34509847,1.33184402e-06,6.06269979,-4.36015236e-01,-1,-0.9992984805945265
8.12635167e+05,2.49999843e-01,-8.80979813e-14,-5.25522767e-01,3.50052324,2.58869280e-01,-1.34509847,1.23525249e-06,6.07231380,-4.07082486e-01,-1,-0.9992598991636937
8.55770526e+05,2.49999839e-01,-8.15790631e-14,-5.47952410e-01,3.50027039,2.48160172e-01,-1.34509847,1.14295384e-06,6.08251249,-3.76378372e-01,-1,-0.9992195811675167
9.01089603e+05,2.49999836e-01,-7.54737156e-14,-5.70695470e-01,3.50001698,2.37295457e-01,-1.34509847,1.05932995e-06,6.09286559,-3.45196229e-01,-1,-0.9991772220817089
9.48876496e+05,2.49999832e-01,-6.98998071e-14,-5.93204084e-01,3.49975843,2.26558247e-01,-1.34509847,9.85384441e-07,6.10310812,-3.14336036e-01,-1,-0.9991325563639787
9.99349535e+05,2.49999829e-01,-6.48408785e-14,-6.15284444e-01,3.49950280,2.16029333e-01,-1.34509847,9.20751998e-07,6.11327342,-2.83848753e-01,-1,-0.9990853799444328
1.05265417e+06,2.49999825e-01,-6.02371929e-14,-6.36944149e-01,3.49924751,2.05710061e-01,-1.34509847,8.64345691e-07,6.12312618,-2.54152357e-01,-1,-0.99903555687306
1.10891991e+06,2.49999822e-01,-5.60308943e-14,-6.58250529e-01,3.49898454,1.95582817e-01,-1.34509847,8.15270593e-07,6.13280128,-2.24983826e-01,-1,-0.9989829660996711
1.16833428e+06,2.49999819e-01,-5.21804130e-14,-6.79204276e-01,3.49872119,1.85632634e-01,-1.34509847,7.73106566e-07,6.14231371,-1.96303969e-01,-1,-0.9989274323473608
1.23104110e+06,2.49999816e-01,-4.86482276e-14,-6.99864724e-01,3.49844869,1.75847411e-01,-1.34509847,7.37171780e-07,6.15167217,-1.68074231e-01,-1,-0.9988688211896554
1.29720773e+06,2.49999813e-01,-4.53970990e-14,-7.20230415e-01,3.49817429,1.66213362e-01,-1.34509847,7.07114493e-07,6.16089102,-1.40255682e-01,-1,-0.9988069761975831
1.36706236e+06,2.49999810e-01,-4.24064676e-14,-7.40371435e-01,3.49788386,1.56723723e-01,-1.34509847,6.79863480e-07,6.16997589,-1.12837025e-01,-1,-0.9987416840852517
1.44076436e+06,2.49999807e-01,-3.96419581e-14,-7.60291072e-01,3.49758248,1.47366653e-01,-1.34509847,6.52980476e-07,6.17893721,-8.57860558e-02,-1,-0.9986727958918268
1.51852488e+06,2.49999804e-01,-3.70857583e-14,-7.80001329e-01,3.49727134,1.38133801e-01,-1.34509847,6.30335845e-07,6.18778352,-5.90788745e-02,-1,-0.9986001142584577
1.60057339e+06,2.49999801e-01,-3.47200923e-14,-7.99506148e-01,3.49695373,1.29016617e-01,-1.34509847,6.10923248e-07,6.19652298,-3.26875018e-02,-1,-0.9985234247028542
1.68712906e+06,2.49999798e-01,-3.25254270e-14,-8.18861337e-01,3.49661863,1.20009225e-01,-1.34509847,5.93800051e-07,6.20516081,-6.58987863e-03,-1,-0.998442522369987
1.77845339e+06,2.49999795e-01,-3.04881730e-14,-8.38048999e-01,3.49627439,1.11103868e-01,-1.34509847,5.78253846e-07,6.21370310,1.92283726e-02,-1,-0.9983571628395885
1.87479297e+06,2.49999792e-01,-2.85932753e-14,-8.57112986e-01,3.49591228,1.02296092e-01,-1.34509847,5.63630525e-07,6.22215350,4.47745791e-02,-1,-0.9982671156275522
1.97642446e+06,2.49999789e-01,-2.68295716e-14,-8.76056280e-01,3.49553430,9.35804036e-02,-1.34509847,5.49488262e-07,6.23051758,7.00682555e-02,-1,-0.9981721221437774
2.08362963e+06,2.49999787e-01,-2.51856228e-14,-8.94899125e-01,3.49513784,8.49519007e-02,-1.34509847,5.35537745e-07,6.23880184,9.51264142e-02,-1,-0.9980719190219205
2.19670781e+06,2.49999784e-01,-2.36518108e-14,-9.13653663e-01,3.49472181,7.64066988e-02,-1.34509847,5.21583648e-07,6.24700886,1.19953752e-01,-1,-0.9979662264825598
2.31597446e+06,2.49999781e-01,-2.22195386e-14,-9.32328918e-01,3.49428564,6.79414204e-02,-1.34509847,5.07484792e-07,6.25514100,1.44559601e-01,-1,-0.9978547496697959
2.44176230e+06,2.49999779e-01,-2.08813890e-14,-9.50930428e-01,3.49382945,5.95530453e-02,-1.34509847,4.93192097e-07,6.26319954,1.68952935e-01,-1,-0.997737177595057
2.57441445e+06,2.49999776e-01,-1.96299991e-14,-9.69471676e-01,3.49335180,5.12377169e-02,-1.34509847,4.78658363e-07,6.27119002,1.93145097e-01,-1,-0.9976131895490418
2.71427645e+06,2.49999773e-01,-1.84578292e-14,-9.87983687e-01,3.49284554,4.29942215e-02,-1.34509847,4.63825058e-07,6.27911278,2.17143427e-01,-1,-0.9974824625605099
2.86180545e+06,2.49999771e-01,-1.73599365e-14,-1.00646371,3.49231244,3.48204131e-02,-1.34509847,4.48800361e-07,6.28696974,2.40950494e-01,-1,-0.9973445693379682
3.01739753e+06,2.49999768e-01,-1.63307865e-14,-1.02492886,3.49174891,2.67149033e-02,-1.34509847,4.25769152e-07,6.29476256,2.64570262e-01,-1,-0.9971991396711695
3.18141560e+06,2.49999765e-01,-1.53650100e-14,-1.04338953,3.49115330,1.86757923e-02,-1.34509847,3.92736762e-07,6.30249236,2.88008410e-01,-1,-0.9970458343533855
3.35428873e+06,2.49999763e-01,-1.44581527e-14,-1.06185722,3.49052348,1.07015805e-02,-1.34509847,3.62618804e-07,6.31016006,3.11264072e-01,-1,-0.996884252339093
3.53663817e+06,2.49999760e-01,-1.36066169e-14,-1.08035392,3.48985366,2.79286403e-03,-1.34509847,3.35221450e-07,6.31776511,3.34337984e-01,-1,-0.9967138129549022
3.72883278e+06,2.49999758e-01,-1.28058722e-14,-1.09889068,3.48914218,-5.05255039e-03,-1.34509847,3.10314215e-07,6.32531003,3.57240355e-01,-1,-0.9965341714327064
3.93130827e+06,2.49999755e-01,-1.20521884e-14,-1.11748423,3.48838513,-1.28352230e-02,-1.34509847,2.87673931e-07,6.33279415,3.79967573e-01,-1,-0.9963449205206701
4.14483692e+06,2.49999753e-01,-1.13431117e-14,-1.13616662,3.48757327,-2.05526968e-02,-1.34509847,2.67121396e-07,6.34021507,4.02512488e-01,-1,-0.9961453383798472
4.36973768e+06,2.49999750e-01,-1.06745405e-14,-1.15495551,3.48670232,-2.82052428e-02,-1.34509847,2.48417681e-07,6.34757365,4.24871888e-01,-1,-0.9959351268922856
4.60666294e+06,2.49999748e-01,-1.00442647e-14,-1.17386590,3.48576760,-3.57909944e-02,-1.34509847,2.31398030e-07,6.35486698,4.47038185e-01,-1,-0.9957136762784882
4.85631627e+06,2.49999746e-01,-9.45003901e-15,-1.19291351,3.48476435,-4.33083094e-02,-1.34509847,2.15901608e-07,6.36209390,4.69011702e-01,-1,-0.9954803289217519
5.11913863e+06,2.49999743e-01,-8.88921774e-15,-1.21210085,3.48369175,-5.07567614e-02,-1.34509847,2.01756878e-07,6.36925272,4.90794057e-01,-1,-0.9952346726631424
5.39611645e+06,2.49999741e-01,-8.36075425e-15,-1.23143144,3.48254758,-5.81337335e-02,-1.34509847,1.88853687e-07,6.37634241,5.12376241e-01,-1,-0.9949757855008057
5.68763919e+06,2.49999739e-01,-7.86206575e-15,-1.25090546,3.48133207,-6.54397202e-02,-1.34509847,1.77020840e-07,6.38336361,5.33758837e-01,-1,-0.9947033034121129
5.99483415e+06,2.49999736e-01,-7.39259785e-15,-1.27048634,3.48005400,-7.26740268e-02,-1.34509847,1.66173964e-07,6.39031433,5.54930081e-01,-1,-0.9944161727260582
6.31843959e+06,2.49999734e-01,-6.95145965e-15,-1.29011051,3.47873124,-7.98405828e-02,-1.34509847,1.56213002e-07,6.39719827,5.75908112e-01,-1,-0.9941137034016976
6.65918610e+06,2.49999732e-01,-6.53579829e-15,-1.30982917,3.47735003,-8.69374994e-02,-1.34509847,1.46938033e-07,6.40401335,5.96683703e-01,-1,-0.9937952125671246
7.01863659e+06,2.49999729e-01,-6.14657869e-15,-1.32949700,3.47595003,-9.39714020e-02,-1.34509847,1.38349735e-07,6.41076556,6.17279676e-01,-1,-0.9934592393929671
7.39741172e+06,2.49999727e-01,-5.78185035e-15,-1.34909114,3.47453966,-1.00947730e-01,-1.34509847,1.30345930e-07,6.41746145,6.37713195e-01,-1,-0.9931052037572999
7.79685089e+06,2.49999725e-01,-5.44063977e-15,-1.36857655,3.47312975,-1.07870616e-01,-1.34509847,1.22874752e-07,6.42410455,6.57993962e-01,-1,-0.9927318537423154
8.21841936e+06,2.49999723e-01,-5.12179034e-15,-1.38793111,3.47172764,-1.14743691e-01,-1.34509847,1.15889146e-07,6.43069800,6.78130404e-01,-1,-0.9923378197906838
8.66300831e+06,2.49999721e-01,-4.82362447e-15,-1.40712325,3.47034442,-1.21573312e-01,-1.34509847,1.09346949e-07,6.43724774,6.98145538e-01,-1,-0.9919222689293486
9.13196129e+06,2.49999718e-01,-4.54494220e-15,-1.42613628,3.46898651,-1.28363999e-01,-1.34509847,1.03217352e-07,6.44375742,7.18047022e-01,-1,-0.9914839453615573
9.62708017e+06,2.49999716e-01,-4.28461457e-15,-1.44496979,3.46765565,-1.35119035e-01,-1.34509847,9.74727726e-08,6.45023061,7.37847360e-01,-1,-0.9910211649054814
1.01496512e+07,2.49999714e-01,-4.04115873e-15,-1.46361207,3.46635721,-1.41843299e-01,-1.34509848,9.20855221e-08,6.45667211,7.57561292e-01,-1,-0.9905327253218497
1.07009932e+07,2.49999712e-01,-3.81336209e-15,-1.48207179,3.46509082,-1.48540376e-01,-1.34509848,8.70308915e-08,6.46308642,7.77200586e-01,-1,-0.9900173939286825
1.12826999e+07,2.49999710e-01,-3.60000925e-15,-1.50035612,3.46385632,-1.55213548e-01,-1.34509848,8.22859519e-08,6.46947726,7.96771973e-01,-1,-0.9894736810895995
1.18966111e+07,2.49999708e-01,-3.40003169e-15,-1.51847949,3.46265129,-1.61865167e-01,-1.34509848,7.78283163e-08,6.47584618,8.16284051e-01,-1,-0.9888998671701503
1.25448125e+07,2.49999705e-01,-3.21250326e-15,-1.53645346,3.46147397,-1.68497522e-01,-1.34509848,7.36404554e-08,6.48219510,8.35743835e-01,-1,-0.9882940026967112
1.32287804e+07,2.49999703e-01,-3.03657408e-15,-1.55426347,3.46032967,-1.75113930e-01,-1.34509848,6.97130273e-08,6.48852635,8.55157653e-01,-1,-0.9876547077930241
1.39504404e+07,2.49999701e-01,-2.87128163e-15,-1.57192859,3.45921437,-1.81715878e-01,-1.34509848,6.60244380e-08,6.49484165,8.74535980e-01,-1,-0.9869801826286199
