star_age,star_mass,star_mdot,log_L,log_Teff,log_R,log_surf_z,v_wind_Km_per_s,log_center_T,log_center_Rho,phase,x
9.92936650e+02,2.79999981,-1.67893508e-10,2.48592011,3.59365093,1.57833534,-1.34509847,1.01741011e-04,5.79828541,-3.27812626,-1,-1.0
1.04213547e+03,2.79999980,-1.65783272e-10,2.48250678,3.59395562,1.57601930,-1.34509847,1.01908841e-04,5.80049967,-3.27147451,-1,-0.9999905147625215
1.09372449e+03,2.79999979,-1.63574373e-10,2.47896216,3.59426762,1.57362299,-1.34509847,1.02041966e-04,5.80279080,-3.26459378,-1,-0.9999805687088158
1.14781969e+03,2.79999978,-1.61295531e-10,2.47529339,3.59458950,1.57114485,-1.34509847,1.02159791e-04,5.80516041,-3.25747465,-1,-0.9999701394786342
1.20454489e+03,2.79999978,-1.58960461e-10,2.47147947,3.59491690,1.56858308,-1.34509847,1.02262632e-04,5.80761038,-3.25011387,-1,-0.9999592032002232
1.26402742e+03,2.79999977,-1.56568752e-10,2.46753922,3.59525537,1.56593603,-1.34509847,1.02357102e-04,5.81014220,-3.24250758,-1,-0.9999477353251225
1.32639145e+03,2.79999976,-1.54134764e-10,2.46343200,3.59559512,1.56320292,-1.34509847,1.02433947e-04,5.81275651,-3.23465027,-1,-0.9999357119141004
1.39204618e+03,2.79999975,-1.51656779e-10,2.45955995,3.59604336,1.56037041,-1.34509847,1.02680150e-04,5.81546499,-3.22650892,-1,-0.9999230540758508
1.46090970e+03,2.79999974,-1.49244041e-10,2.45519652,3.59641283,1.55744976,-1.34509847,1.02837352e-04,5.81825948,-3.21810860,-1,-0.9999097776021304
1.53310527e+03,2.79999973,-1.46691569e-10,2.45077104,3.59681233,1.55443802,-1.34509847,1.02955460e-04,5.82114122,-3.20944439,-1,-0.9998958587291505
1.60874432e+03,2.79999971,-1.44121617e-10,2.44617001,3.59721308,1.55133600,-1.34509847,1.03064549e-04,5.82410983,-3.20051787,-1,-0.9998812759738753
1.68794529e+03,2.79999970,-1.41511999e-10,2.44142446,3.59762292,1.54814355,-1.34509847,1.03161444e-04,5.82716557,-3.19132733,-1,-0.9998660065017828
1.77132549e+03,2.79999969,-1.38869149e-10,2.43653493,3.59804774,1.54484914,-1.34509847,1.03257448e-04,5.83031922,-3.18184113,-1,-0.9998499312992069
1.85877387e+03,2.79999968,-1.36201033e-10,2.43148746,3.59848083,1.54145923,-1.34509847,1.03344041e-04,5.83356501,-3.17207617,-1,-0.9998330717759215
1.95020488e+03,2.79999967,-1.33507775e-10,2.42628749,3.59892067,1.53797957,-1.34509847,1.03417567e-04,5.83689713,-3.16205147,-1,-0.9998154444254537
2.04651349e+03,2.79999966,-1.30806856e-10,2.42114734,3.59942971,1.53439140,-1.34509847,1.03591397e-04,5.84033316,-3.15171247,-1,-0.9997968767029541
2.14728273e+03,2.79999964,-1.28123704e-10,2.41567698,3.59990231,1.53071102,-1.34509847,1.03707480e-04,5.84385850,-3.14110315,-1,-0.9997774489977383
2.25306446e+03,2.79999963,-1.25368347e-10,2.41000887,3.60037526,1.52693107,-1.34509847,1.03751643e-04,5.84747953,-3.13020439,-1,-0.9997570549145077
2.36395399e+03,2.79999962,-1.22605817e-10,2.40427392,3.60088072,1.52305267,-1.34509847,1.03826144e-04,5.85119523,-3.11901902,-1,-0.9997356760780658
2.48038833e+03,2.79999960,-1.19852724e-10,2.39839620,3.60140136,1.51907253,-1.34509847,1.03912350e-04,5.85500893,-3.10753382,-1,-0.9997132282355048
2.60218816e+03,2.79999959,-1.17115898e-10,2.39241320,3.60194321,1.51499733,-1.34509847,1.04026237e-04,5.85891415,-3.09576998,-1,-0.9996897459586457
2.73042183e+03,2.79999957,-1.14347450e-10,2.38627423,3.60249992,1.51081442,-1.34509847,1.04107834e-04,5.86292301,-3.08369222,-1,-0.9996650232760147
2.86462467e+03,2.79999956,-1.11613599e-10,2.37992685,3.60305202,1.50653653,-1.34509847,1.04186553e-04,5.86702359,-3.07133357,-1,-0.9996391497732015
3.00517709e+03,2.79999954,-1.08820042e-10,2.37332555,3.60358805,1.50216383,-1.34509847,1.04152941e-04,5.87121600,-3.05869704,-1,-0.999612052109439
3.15292227e+03,2.79999953,-1.06056478e-10,2.36665250,3.60415810,1.49768720,-1.34509847,1.04162935e-04,5.87550838,-3.04575550,-1,-0.9995835677246796
3.30783585e+03,2.79999951,-1.03327323e-10,2.35991687,3.60476202,1.49311154,-1.34509847,1.04220207e-04,5.87989615,-3.03252217,-1,-0.9995537013153849
3.47022379e+03,2.79999949,-1.00620073e-10,2.35313803,3.60540462,1.48843692,-1.34509847,1.04316349e-04,5.88437957,-3.01900061,-1,-0.9995223938943019
3.64043032e+03,2.79999948,-9.79234196e-11,2.34602488,3.60601128,1.48366703,-1.34509847,1.04324144e-04,5.88895637,-3.00519451,-1,-0.9994895790959504
3.81891453e+03,2.79999946,-9.52444721e-11,2.33882960,3.60664617,1.47879961,-1.34509847,1.04344692e-04,5.89362810,-2.99110062,-1,-0.9994551684105315
4.00605811e+03,2.79999944,-9.25653639e-11,2.33139115,3.60726701,1.47383871,-1.34509847,1.04290509e-04,5.89837053,-2.97676925,-1,-0.9994190882505021
4.20231039e+03,2.79999942,-8.99116771e-11,2.32380027,3.60789610,1.46878508,-1.34509847,1.04219225e-04,5.90316119,-2.96224223,-1,-0.9993812519877323
4.40817380e+03,2.79999941,-8.73000255e-11,2.31633231,3.60860431,1.46363469,-1.34509847,1.04247685e-04,5.90806263,-2.94740382,-1,-0.999341562756731
4.62395953e+03,2.79999939,-8.47368311e-11,2.30851476,3.60927186,1.45839081,-1.34509847,1.04214174e-04,5.91309980,-2.93220042,-1,-0.9992999605619324
4.85016105e+03,2.79999937,-8.21784495e-11,2.30047519,3.60992819,1.45305837,-1.34509847,1.04102205e-04,5.91821983,-2.91674442,-1,-0.9992563502652793
5.08733152e+03,2.79999935,-7.96469640e-11,2.29248071,3.61064141,1.44763468,-1.34509847,1.04030277e-04,5.92343523,-2.90100366,-1,-0.9992106252208408
5.33590188e+03,2.79999933,-7.72101785e-11,2.28436314,3.61136813,1.44212246,-1.34509847,1.04025512e-04,5.92873456,-2.88500721,-1,-0.999162702345969
5.59646606e+03,2.79999931,-7.47622009e-11,2.27595009,3.61206312,1.43652596,-1.34509847,1.03884407e-04,5.93411931,-2.86875489,-1,-0.9991124671345215
5.86993737e+03,2.79999929,-7.23526169e-11,2.26743211,3.61277485,1.43084350,-1.34509847,1.03732267e-04,5.93958952,-2.85224658,-1,-0.9990597435058067
6.15646459e+03,2.79999927,-6.99974679e-11,2.25884223,3.61350957,1.42507912,-1.34509847,1.03601800e-04,5.94513950,-2.83549747,-1,-0.9990045027759329
6.45658723e+03,2.79999925,-6.76852744e-11,2.25016681,3.61426308,1.41923440,-1.34509847,1.03469481e-04,5.95076986,-2.81850452,-1,-0.998946640930607
6.77162701e+03,2.79999923,-6.54281038e-11,2.24124203,3.61499439,1.41330939,-1.34509847,1.03296538e-04,5.95648089,-2.80126877,-1,-0.9988859031501389
7.10165839e+03,2.79999921,-6.32026988e-11,2.23224906,3.61574672,1.40730825,-1.34509847,1.03103893e-04,5.96226823,-2.78380100,-1,-0.998822275079087
7.44753698e+03,2.79999919,-6.10251479e-11,2.22320074,3.61652307,1.40123138,-1.34509847,1.02918079e-04,5.96813200,-2.76610947,-1,-0.9987555917609738
7.81034828e+03,2.79999917,-5.89097651e-11,2.21392523,3.61727957,1.39508064,-1.34509847,1.02706160e-04,5.97407082,-2.74820110,-1,-0.9986856439179086
8.19030663e+03,2.79999914,-5.68281484e-11,2.20465667,3.61807357,1.38885835,-1.34509847,1.02493327e-04,5.98008169,-2.73008038,-1,-0.9986123902264246
8.58901469e+03,2.79999912,-5.48111410e-11,2.19518414,3.61885198,1.38256526,-1.34509847,1.02264469e-04,5.98616446,-2.71174885,-1,-0.9985355217032839
9.00649376e+03,2.79999910,-5.28434141e-11,2.18557798,3.61963005,1.37620603,-1.34509847,1.02017414e-04,5.99231486,-2.69321430,-1,-0.9984550342419745
9.44440187e+03,2.79999908,-5.09194402e-11,2.17591007,3.62042620,1.36977978,-1.34509847,1.01756838e-04,5.99853378,-2.67447710,-1,-0.9983706081842544
9.90335607e+03,2.79999905,-4.90433131e-11,2.16615359,3.62123182,1.36329030,-1.34509847,1.01483444e-04,6.00481783,-2.65554900,-1,-0.9982821245665838
1.03840668e+04,2.79999903,-4.72307033e-11,2.15632734,3.62205068,1.35673946,-1.34509847,1.01235095e-04,6.01116418,-2.63644039,-1,-0.998189446420391
1.08886430e+04,2.79999901,-4.54640260e-11,2.14644870,3.62288748,1.35012655,-1.34509847,1.00977173e-04,6.01757278,-2.61714662,-1,-0.9980921671546898
1.14170975e+04,2.79999898,-4.37504866e-11,2.13644357,3.62372142,1.34345610,-1.34509847,1.00708650e-04,6.02403971,-2.59768091,-1,-0.9979902842959335
1.19705901e+04,2.79999896,-4.20827747e-11,2.12627986,3.62454281,1.33673146,-1.34509847,1.00402886e-04,6.03056274,-2.57804492,-1,-0.9978835742416364
1.25512770e+04,2.79999894,-4.04624651e-11,2.11593740,3.62534585,1.32995414,-1.34509847,1.00054116e-04,6.03714107,-2.55825025,-1,-0.9977716212893682
1.31599149e+04,2.79999891,-3.88900288e-11,2.10568640,3.62619847,1.32312342,-1.34509847,9.97411526e-05,6.04377462,-2.53829405,-1,-0.9976542795519066
1.37975731e+04,2.79999889,-3.73864332e-11,2.09532061,3.62704746,1.31624253,-1.34509847,9.94643975e-05,6.05046018,-2.51818568,-1,-0.9975313428746231
1.44657190e+04,2.79999886,-3.59129146e-11,2.08484670,3.62789229,1.30931593,-1.34509847,9.91220186e-05,6.05719262,-2.49793890,-1,-0.9974025283515973
1.51661881e+04,2.79999884,-3.44931966e-11,2.07425788,3.62873055,1.30234499,-1.34509847,9.87748943e-05,6.06397094,-2.47755694,-1,-0.9972674821094354
1.59006669e+04,2.79999882,-3.31233160e-11,2.06365392,3.62958658,1.29533095,-1.34509847,9.84395876e-05,6.07079348,-2.45704236,-1,-0.9971258790010505
1.66703823e+04,2.79999879,-3.17982586e-11,2.05299342,3.63044788,1.28827811,-1.34509847,9.80921564e-05,6.07765682,-2.43640845,-1,-0.9969774824874796
1.74772182e+04,2.79999877,-3.05210434e-11,2.04237531,3.63133840,1.28118802,-1.34509847,9.77670633e-05,6.08455934,-2.41565985,-1,-0.9968219293640995
1.83224932e+04,2.79999874,-2.92901532e-11,2.03150658,3.63218039,1.27406966,-1.34509847,9.73848507e-05,6.09149227,-2.39482426,-1,-0.9966589654127369
1.92083599e+04,2.79999872,-2.80927479e-11,2.02055359,3.63301328,1.26692738,-1.34509847,9.69434637e-05,6.09845116,-2.37391336,-1,-0.9964881756250199
2.01370930e+04,2.79999869,-2.69499293e-11,2.00967007,3.63387532,1.25976155,-1.34509847,9.65536655e-05,6.10543585,-2.35292713,-1,-0.9963091214524286
2.11106959e+04,2.79999866,-2.58431393e-11,1.99881388,3.63475237,1.25257934,-1.34509847,9.61384660e-05,6.11243934,-2.33188996,-1,-0.996121416651456
2.21309923e+04,2.79999864,-2.47916343e-11,1.98780167,3.63559425,1.24538949,-1.34509847,9.57263090e-05,6.11945302,-2.31082403,-1,-0.9959247096236781
2.32005799e+04,2.79999861,-2.37680442e-11,1.97678166,3.63643350,1.23820099,-1.34509847,9.52454020e-05,6.12646761,-2.28975914,-1,-0.9957184995481116
2.43220423e+04,2.79999859,-2.27936405e-11,1.96580249,3.63727766,1.23102307,-1.34509847,9.47866431e-05,6.13347404,-2.26872246,-1,-0.9955022883221692
2.54983041e+04,2.79999856,-2.18672202e-11,1.95490489,3.63813119,1.22386722,-1.34509847,9.43540273e-05,6.14046139,-2.24774391,-1,-0.9952755121005078
2.67320240e+04,2.79999853,-2.09829349e-11,1.94416078,3.63900496,1.21674762,-1.34509847,9.39352577e-05,6.14741669,-2.22686791,-1,-0.9950376583017102
2.80255180e+04,2.79999851,-2.01381103e-11,1.93333276,3.63982729,1.20968895,-1.34509847,9.34602988e-05,6.15431641,-2.20616808,-1,-0.9947882804148642
2.93823240e+04,2.79999848,-1.93346756e-11,1.92260796,3.64063454,1.20271205,-1.34509847,9.29701972e-05,6.16113915,-2.18570403,-1,-0.9945266963540647
3.08056380e+04,2.79999846,-1.85697512e-11,1.91197402,3.64140906,1.19584604,-1.34509847,9.24383931e-05,6.16785569,-2.16556259,-1,-0.994252289949676
3.22995803e+04,2.79999843,-1.78540358e-11,1.90168635,3.64220204,1.18911625,-1.34509847,9.19587922e-05,6.17444084,-2.14581553,-1,-0.9939642668325653
3.38670998e+04,2.79999840,-1.71812028e-11,1.89158050,3.64295405,1.18255930,-1.34509847,9.14595309e-05,6.18085929,-2.12656906,-1,-0.9936620584724957
3.55132574e+04,2.79999837,-1.65546355e-11,1.88190248,3.64370947,1.17620945,-1.34509847,9.09919199e-05,6.18707711,-2.10792764,-1,-0.9933446891582944
3.72432941e+04,2.79999835,-1.59726650e-11,1.87250746,3.64440984,1.17011120,-1.34509847,9.05072102e-05,6.19305056,-2.09002432,-1,-0.9930111484565888
3.90586070e+04,2.79999832,-1.54368389e-11,1.86362276,3.64510301,1.16428251,-1.34509847,9.00635400e-05,6.19876138,-2.07291189,-1,-0.9926611670148764
4.09679624e+04,2.79999829,-1.49463975e-11,1.85507366,3.64572324,1.15876751,-1.34509847,8.96131467e-05,6.20416689,-2.05671703,-1,-0.9922930547430839
4.29717160e+04,2.79999826,-1.44943875e-11,1.84704247,3.64631880,1.15356079,-1.34509847,8.91717389e-05,6.20927122,-2.04142540,-1,-0.9919067430643842
4.50767162e+04,2.79999823,-1.40861865e-11,1.83956725,3.64689901,1.14866275,-1.34509847,8.87928778e-05,6.21407423,-2.02704045,-1,-0.9915009116483231
4.72895963e+04,2.79999820,-1.37090535e-11,1.83239678,3.64740772,1.14406010,-1.34509847,8.83844335e-05,6.21858855,-2.01352363,-1,-0.9910742816344371
4.96123477e+04,2.79999817,-1.33610863e-11,1.82558379,3.64788489,1.13969927,-1.34509847,8.79933439e-05,6.22286636,-2.00071487,-1,-0.9906264690927472
5.20508092e+04,2.79999814,-1.30388485e-11,1.81910610,3.64835609,1.13551801,-1.34509847,8.76442753e-05,6.22696884,-1.98843326,-1,-0.9901563483376256
5.46141534e+04,2.79999810,-1.27359876e-11,1.81294898,3.64885818,1.13143529,-1.34509847,8.73513546e-05,6.23097511,-1.97643819,-1,-0.989662150946795
5.73018962e+04,2.79999807,-1.24397878e-11,1.80659710,3.64930732,1.12736107,-1.34509847,8.70214742e-05,6.23497421,-1.96446713,-1,-0.9891439702518328
6.01180670e+04,2.79999803,-1.21437320e-11,1.80011049,3.64976625,1.12319990,-1.34509847,8.66787655e-05,6.23905940,-1.95224076,-1,-0.9886010294085807
6.30682779e+04,2.79999800,-1.18411556e-11,1.79347059,3.65028117,1.11885011,-1.34509847,8.63314324e-05,6.24333043,-1.93945980,-1,-0.9880322464378116
6.61627838e+04,2.79999796,-1.15299542e-11,1.78617158,3.65078709,1.11418876,-1.34509847,8.59664676e-05,6.24790879,-1.92576116,-1,-0.9874356442562983
6.94022027e+04,2.79999793,-1.11936669e-11,1.77825844,3.65135068,1.10910502,-1.34509847,8.55232308e-05,6.25290274,-1.91082003,-1,-0.9868111037173464
7.27877276e+04,2.79999789,-1.08317569e-11,1.76948144,3.65196477,1.10348832,-1.34509847,8.50137142e-05,6.25842131,-1.89430956,-1,-0.9861583948177098
7.63292635e+04,2.79999785,-1.04429293e-11,1.75983667,3.65270484,1.09718581,-1.34509847,8.44839995e-05,6.26461454,-1.87577990,-1,-0.9854756079327832
8.00179409e+04,2.79999782,-1.00167433e-11,1.74880378,3.65347059,1.09013786,-1.34509847,8.37977965e-05,6.27154204,-1.85505584,-1,-0.9847644530489812
8.38628227e+04,2.79999778,-9.55845401e-12,1.73653361,3.65434901,1.08224593,-1.34509847,8.30178692e-05,6.27929994,-1.83184596,-1,-0.9840231828935289
8.78633813e+04,2.79999774,-9.07829200e-12,1.72292299,3.65530028,1.07353809,-1.34509847,8.21572002e-05,6.28786210,-1.80623207,-1,-0.9832518991845425
9.20271773e+04,2.79999770,-8.58741222e-12,1.70833730,3.65634753,1.06415075,-1.34509847,8.12332824e-05,6.29709495,-1.77861635,-1,-0.9824491442836788
9.63675546e+04,2.79999767,-8.10017511e-12,1.69291143,3.65740050,1.05433187,-1.34509847,8.02281401e-05,6.30675426,-1.74972714,-1,-0.9816123455670335
1.00904502e+05,2.79999763,-7.63464264e-12,1.67726709,3.65848161,1.04434748,-1.34509847,7.92265774e-05,6.31657838,-1.72034442,-1,-0.9807376493138282
1.05657429e+05,2.79999760,-7.19850421e-12,1.66173142,3.65958253,1.03437780,-1.34509847,7.82547686e-05,6.32639048,-1.69099542,-1,-0.9798213134888509
1.10637368e+05,2.79999756,-6.78891123e-12,1.64618119,3.66062987,1.02450800,-1.34509847,7.72544382e-05,6.33610763,-1.66193274,-1,-0.9788612111115365
1.15857659e+05,2.79999753,-6.40891969e-12,1.63090724,3.66169892,1.01473293,-1.34509847,7.63073041e-05,6.34593219,-1.63277671,-1,-0.9778547703098774
1.21331213e+05,2.79999750,-6.05270183e-12,1.61575937,3.66274517,1.00506650,-1.34509847,7.53538184e-05,6.35545206,-1.60430895,-1,-0.9767995019204937
1.27065895e+05,2.79999746,-5.71776581e-12,1.60060308,3.66373870,9.95501297e-01,-1.34509847,7.43809863e-05,6.36487361,-1.57613330,-1,-0.9756938896185473
1.33078617e+05,2.79999743,-5.40427277e-12,1.58567275,3.66474409,9.86025355e-01,-1.34509847,7.34286189e-05,6.37420811,-1.54821438,-1,-0.97453467287185
1.39378502e+05,2.79999740,-5.11085260e-12,1.57075140,3.66570647,9.76639920e-01,-1.34509847,7.24874379e-05,6.38345482,-1.52055547,-1,-0.9733200928207073
1.45984137e+05,2.79999736,-4.83453016e-12,1.55599275,3.66666884,9.67335852e-01,-1.34509847,7.15453422e-05,6.39262452,-1.49312828,-1,-0.9720465660029749
1.52908854e+05,2.79999733,-4.57698528e-12,1.54136095,3.66762542,9.58106780e-01,-1.34509847,7.06463129e-05,6.40172284,-1.46591940,-1,-0.9707115220889972
1.60167152e+05,2.79999730,-4.33375705e-12,1.52685707,3.66857843,9.48948834e-01,-1.34509847,6.97424535e-05,6.41075268,-1.43891909,-1,-0.9693121657585168
1.67770682e+05,2.79999727,-4.10476640e-12,1.51231697,3.66948581,9.39864022e-01,-1.34509847,6.88411190e-05,6.41971083,-1.41213417,-1,-0.9678462507685979
1.75739926e+05,2.79999724,-3.88924548e-12,1.49791988,3.67039698,9.30843135e-01,-1.34528277,6.79311664e-05,6.42859341,-1.38550935,-1,-0.9663098283124596
1.84093002e+05,2.79999720,-3.68681425e-12,1.48360878,3.67129905,9.21883432e-01,-1.34644986,6.69151088e-05,6.43732118,-1.35894690,-1,-0.9646994053483453
1.92851354e+05,2.79999717,-3.49599150e-12,1.46943765,3.67220748,9.12981013e-01,-1.34721928,6.59680026e-05,6.44588710,-1.33241292,-1,-0.9630108476016426
2.02027991e+05,2.79999714,-3.31549672e-12,1.45534234,3.67310581,9.04136709e-01,-1.34728404,6.51148245e-05,6.45429908,-1.30590577,-1,-0.9612416470151592
2.11639763e+05,2.79999711,-3.14523029e-12,1.44124631,3.67397536,8.95349591e-01,-1.34695952,6.43221787e-05,6.46257438,-1.27941870,-1,-0.9593885550099349
2.21720302e+05,2.79999708,-2.98530824e-12,1.42724427,3.67484138,8.86616529e-01,-1.34714502,6.34930836e-05,6.47072478,-1.25294267,-1,-0.957445087538042
2.32278973e+05,2.79999705,-2.83311868e-12,1.41322895,3.67567613,8.77939359e-01,-1.34705555,6.26827186e-05,6.47875416,-1.22647283,-1,-0.955409439083637
2.43340921e+05,2.79999702,-2.68999219e-12,1.39931665,3.67651092,8.69313645e-01,-1.34646565,6.19625134e-05,6.48666773,-1.19999001,-1,-0.9532767618415003
2.54947197e+05,2.79999699,-2.55471688e-12,1.38559922,3.67736857,8.60739624e-01,-1.34846320,6.09417927e-05,6.49446554,-1.17347288,-1,-0.9510391414249917
2.67101611e+05,2.79999696,-2.42788044e-12,1.37187373,3.67819878,8.52216448e-01,-1.34821693,6.02292804e-05,6.50215331,-1.14691092,-1,-0.9486958432889575
2.79838190e+05,2.79999693,-2.30580624e-12,1.35815636,3.67900312,8.43749091e-01,-1.34876281,5.93766943e-05,6.50972599,-1.12029656,-1,-0.9462403072318384
2.93188218e+05,2.79999690,-2.19260331e-12,1.34450293,3.67979874,8.35331146e-01,-1.34868102,5.86675996e-05,6.51719446,-1.09360416,-1,-0.9436665018860271
3.07167878e+05,2.79999687,-2.08423430e-12,1.33080176,3.68055426,8.26969512e-01,-1.34726502,5.80839788e-05,6.52455733,-1.06684328,-1,-0.9409713072661636
3.21844508e+05,2.79999684,-1.98291061e-12,1.31755110,3.68140201,8.18648677e-01,-1.34993485,5.70884243e-05,6.53183527,-1.03995514,-1,-0.9381417410096363
3.37203016e+05,2.79999681,-1.88567281e-12,1.30412412,3.68217717,8.10384866e-01,-1.35064537,5.62846574e-05,6.53902418,-1.01298050,-1,-0.9351807127635468
3.53314253e+05,2.79999678,-1.79478629e-12,1.29076930,3.68294404,8.02173727e-01,-1.34953639,5.57239373e-05,6.54613322,-9.85886736e-01,-1,-0.9320745628799485
3.70182178e+05,2.79999675,-1.70820772e-12,1.27746095,3.68369546,7.94016701e-01,-1.35097463,5.48783113e-05,6.55316594,-9.58674582e-01,-1,-0.9288225280873813
3.87867472e+05,2.79999672,-1.62616180e-12,1.26408618,3.68440022,7.85919795e-01,-1.34509864,5.48261551e-05,6.56012185,-9.31346917e-01,-1,-0.9254129094529151
4.06403895e+05,2.79999669,-1.54823912e-12,1.25107768,3.68517135,7.77873300e-01,-1.34509859,5.41404347e-05,6.56701893,-9.03857645e-01,-1,-0.9218391982509895
4.25845860e+05,2.79999666,-1.47552974e-12,1.23810344,3.68592183,7.69885218e-01,-1.34509856,5.34985257e-05,6.57385958,-8.76208495e-01,-1,-0.9180909039814885
4.46209200e+05,2.79999664,-1.40636129e-12,1.22522624,3.68666760,7.61955069e-01,-1.34509880,5.28559024e-05,6.58064992,-8.48397132e-01,-1,-0.9141649741369537
4.67575157e+05,2.79999661,-1.34151439e-12,1.21263619,3.68745770,7.54079850e-01,-1.34509871,5.22501958e-05,6.58739809,-8.20390789e-01,-1,-0.9100457457469477
4.89957373e+05,2.79999658,-1.27987987e-12,1.20003698,3.68821417,7.46267295e-01,-1.34509869,5.16435358e-05,6.59410452,-7.92201010e-01,-1,-0.9057305887156738
5.13412919e+05,2.79999655,-1.22140422e-12,1.18749791,3.68895247,7.38521159e-01,-1.34509864,5.10401343e-05,6.60077627,-7.63807035e-01,-1,-0.9012085000965544
