star_age,star_mass,star_mdot,log_L,log_Teff,log_R,log_surf_z,v_wind_Km_per_s,log_center_T,log_center_Rho,phase,x
9.02883649e+02,2.99999980,-1.92695116e-10,2.54562673,3.59335377,1.60878297,-1.34509847,1.05718050e-04,5.79666502,-3.34006862,-1,-1.0
9.47491292e+02,2.99999979,-1.90397649e-10,2.54229594,3.59364789,1.60652935,-1.34509847,1.05917541e-04,5.79882181,-3.33358714,-1,-0.9999897336110027
9.94283163e+02,2.99999979,-1.87968068e-10,2.53884703,3.59395200,1.60419666,-1.34509847,1.06075327e-04,5.80105452,-3.32687764,-1,-0.9999789645248711
1.04334851e+03,2.99999978,-1.85444023e-10,2.53528448,3.59426804,1.60178332,-1.34509847,1.06214823e-04,5.80336471,-3.31993323,-1,-0.9999676722012981
1.09479994e+03,2.99999977,-1.82848161e-10,2.53171303,3.59462364,1.59928638,-1.34509847,1.06398684e-04,5.80575483,-3.31274867,-1,-0.9999558307239341
1.14874754e+03,2.99999976,-1.80237144e-10,2.52792980,3.59496813,1.59670578,-1.34509847,1.06563605e-04,5.80822551,-3.30532078,-1,-0.9999434147564044
1.20531202e+03,2.99999975,-1.77532674e-10,2.52400763,3.59532064,1.59403969,-1.34509847,1.06697930e-04,5.81077835,-3.29764695,-1,-0.9999303965174647
1.26460969e+03,2.99999974,-1.74775005e-10,2.51992000,3.59567498,1.59128719,-1.34509847,1.06811009e-04,5.81341444,-3.28972144,-1,-0.9999167492385252
1.32699886e+03,2.99999973,-1.71949942e-10,2.51567932,3.59603843,1.58843995,-1.34509847,1.06906455e-04,5.81614156,-3.28151941,-1,-0.9999023904550218
1.39246530e+03,2.99999971,-1.69079414e-10,2.51135106,3.59642568,1.58550133,-1.34509847,1.07022097e-04,5.81895639,-3.27305392,-1,-0.9998873234419697
1.46108578e+03,2.99999970,-1.66197986e-10,2.50695889,3.59684267,1.58247126,-1.34509847,1.07187667e-04,5.82185888,-3.26432426,-1,-0.9998715305308568
1.53296582e+03,2.99999969,-1.63287916e-10,2.50240787,3.59726523,1.57935062,-1.34509847,1.07345935e-04,5.82484878,-3.25533073,-1,-0.9998549874363969
1.60821168e+03,2.99999968,-1.60350615e-10,2.49766059,3.59768376,1.57613992,-1.34509847,1.07479762e-04,5.82792540,-3.24607488,-1,-0.9998376697029943
1.68745899e+03,2.99999967,-1.57335863e-10,2.49272391,3.59810636,1.57282639,-1.34509847,1.07566084e-04,5.83110128,-3.23651789,-1,-0.9998194310412599
1.77050563e+03,2.99999965,-1.54287337e-10,2.48762177,3.59853430,1.56941943,-1.34509847,1.07633069e-04,5.83436691,-3.22668953,-1,-0.9998003179688396
1.85733033e+03,2.99999964,-1.51219881e-10,2.48254342,3.59901394,1.56592098,-1.34509847,1.07770836e-04,5.83772040,-3.21659717,-1,-0.9997803353809954
1.94882101e+03,2.99999963,-1.48174478e-10,2.47717662,3.59947466,1.56231615,-1.34509847,1.07880597e-04,5.84117697,-3.20619178,-1,-0.9997592789241344
2.04447257e+03,2.99999961,-1.45063048e-10,2.47180007,3.59997910,1.55861899,-1.34509847,1.08005893e-04,5.84472218,-3.19551936,-1,-0.9997372648463416
2.14496876e+03,2.99999960,-1.41996224e-10,2.46621786,3.60048330,1.55481947,-1.34509847,1.08148231e-04,5.84836597,-3.18454918,-1,-0.9997141357834749
2.25016940e+03,2.99999958,-1.38871502e-10,2.46043418,3.60098437,1.55092550,-1.34509847,1.08223440e-04,5.85210112,-3.17330124,-1,-0.9996899239977727
2.36073960e+03,2.99999957,-1.35742725e-10,2.45456501,3.60151602,1.54692761,-1.34509847,1.08325217e-04,5.85593620,-3.16174942,-1,-0.9996644764150635
2.47633153e+03,2.99999955,-1.32608408e-10,2.44848467,3.60204094,1.54283760,-1.34509847,1.08388035e-04,5.85986039,-3.14992777,-1,-0.9996378730879537
2.59797049e+03,2.99999954,-1.29493204e-10,2.44237576,3.60261253,1.53863998,-1.34509847,1.08514961e-04,5.86388762,-3.13779361,-1,-0.9996098780450284
2.72534933e+03,2.99999952,-1.26353219e-10,2.43601481,3.60316852,1.53434751,-1.34509847,1.08564742e-04,5.86800682,-3.12537530,-1,-0.9995805619764466
2.85875588e+03,2.99999951,-1.23243529e-10,2.42955781,3.60374885,1.52995835,-1.34509847,1.08647856e-04,5.87221884,-3.11267322,-1,-0.9995498586385213
2.99876710e+03,2.99999949,-1.20117828e-10,2.42286186,3.60431922,1.52546963,-1.34509847,1.08662914e-04,5.87652791,-3.09967638,-1,-0.999517635244685
3.14569128e+03,2.99999947,-1.16986230e-10,2.41597867,3.60489185,1.52088278,-1.34509847,1.08632857e-04,5.88093198,-3.08638731,-1,-0.999483820842409
3.29968376e+03,2.99999945,-1.13891503e-10,2.40908166,3.60550979,1.51619839,-1.34509847,1.08664004e-04,5.88543076,-3.07281158,-1,-0.9994483796804016
3.46112787e+03,2.99999944,-1.10845314e-10,2.40218579,3.60617759,1.51141486,-1.34509847,1.08770729e-04,5.89002539,-3.05894865,-1,-0.9994112235357792
3.63032812e+03,2.99999942,-1.07823262e-10,2.39491662,3.60679922,1.50653703,-1.34509847,1.08779434e-04,5.89475736,-3.04473057,-1,-0.999372282325975
3.80774218e+03,2.99999940,-1.04790127e-10,2.38754485,3.60744256,1.50156447,-1.34509847,1.08754075e-04,5.89953671,-3.03030774,-1,-0.9993314507188545
3.99376509e+03,2.99999938,-1.01796822e-10,2.38000791,3.60809004,1.49650103,-1.34509847,1.08714695e-04,5.90429340,-3.01581751,-1,-0.9992886377964937
4.18880223e+03,2.99999936,-9.88449600e-11,2.37237618,3.60876071,1.49134382,-1.34509847,1.08690799e-04,5.90919592,-3.00095651,-1,-0.9992437502612309
4.39327573e+03,2.99999934,-9.59258690e-11,2.36465738,3.60945704,1.48609176,-1.34509847,1.08673780e-04,5.91424308,-2.98571558,-1,-0.9991966909604149
4.60760210e+03,2.99999932,-9.30579783e-11,2.35677164,3.61015695,1.48074908,-1.34509847,1.08649303e-04,5.91937869,-2.97020686,-1,-0.9991473640348297
4.83221251e+03,2.99999930,-9.02063151e-11,2.34869324,3.61085251,1.47531875,-1.34509847,1.08562265e-04,5.92460347,-2.95443281,-1,-0.9990956702512803
5.06758152e+03,2.99999928,-8.73962247e-11,2.34049318,3.61156108,1.46980157,-1.34509847,1.08464512e-04,5.92991623,-2.93839550,-1,-0.9990415003904213
5.31449840e+03,2.99999926,-8.46334753e-11,2.33214869,3.61227696,1.46419757,-1.34509847,1.08350282e-04,5.93531357,-2.92210642,-1,-0.9989846728028245
5.57342768e+03,2.99999924,-8.19365329e-11,2.32371428,3.61301363,1.45850702,-1.34509847,1.08261430e-04,5.94079822,-2.90555621,-1,-0.9989250805775357
5.84462235e+03,2.99999921,-7.92580546e-11,2.31507759,3.61373965,1.45273664,-1.34509847,1.08092522e-04,5.94636206,-2.88876805,-1,-0.9988626654892468
6.12874424e+03,2.99999919,-7.66304945e-11,2.30643904,3.61450585,1.44688498,-1.34509847,1.07951448e-04,5.95200607,-2.87173786,-1,-0.9987972752186742
6.42701789e+03,2.99999917,-7.40863883e-11,2.29758955,3.61526021,1.44095151,-1.34509847,1.07810846e-04,5.95773185,-2.85445886,-1,-0.9987286279395851
6.73925801e+03,2.99999915,-7.15742902e-11,2.28857783,3.61601147,1.43494313,-1.34509847,1.07614138e-04,5.96353362,-2.83695276,-1,-0.9986567662962235
7.06663068e+03,2.99999912,-6.91128031e-11,2.27947195,3.61677664,1.42885986,-1.34509847,1.07403941e-04,5.96940939,-2.81922713,-1,-0.9985814219168467
7.40987315e+03,2.99999910,-6.67138684e-11,2.27034243,3.61757328,1.42270181,-1.34509847,1.07221428e-04,5.97536099,-2.80127942,-1,-0.9985024251243599
7.76936182e+03,2.99999908,-6.43653126e-11,2.26097530,3.61834470,1.41647541,-1.34509847,1.06976176e-04,5.98138251,-2.78312620,-1,-0.9984196892908095
8.14643440e+03,2.99999905,-6.20900559e-11,2.25161358,3.61915370,1.41017655,-1.34509847,1.06782925e-04,5.98747777,-2.76475504,-1,-0.9983329065440394
8.54141886e+03,2.99999903,-5.98458783e-11,2.24208259,3.61995301,1.40381242,-1.34509847,1.06512785e-04,5.99364081,-2.74618729,-1,-0.9982420014021957
8.95541050e+03,2.99999901,-5.76699786e-11,2.23245678,3.62076135,1.39738284,-1.34509847,1.06251699e-04,5.99987086,-2.72742292,-1,-0.9981467217834574
9.38945906e+03,2.99999898,-5.55611803e-11,2.22272805,3.62157610,1.39088897,-1.34509847,1.05996202e-04,6.00616606,-2.70846795,-1,-0.9980468260915766
9.84386891e+03,2.99999896,-5.35061159e-11,2.21286188,3.62238630,1.38433549,-1.34509847,1.05713969e-04,6.01252178,-2.68933201,-1,-0.9979422442762073
1.03206968e+04,2.99999893,-5.15050238e-11,2.20292613,3.62320963,1.37772095,-1.34509847,1.05419146e-04,6.01893912,-2.67001200,-1,-0.9978325029791053
1.08202569e+04,2.99999891,-4.95667301e-11,2.19296372,3.62405554,1.37104794,-1.34509847,1.05147313e-04,6.02541671,-2.65051821,-1,-0.997717529894468
1.13434056e+04,2.99999888,-4.76756353e-11,2.18282727,3.62488446,1.36432186,-1.34509847,1.04821794e-04,6.03194922,-2.63086271,-1,-0.9975971279252897
1.18920964e+04,2.99999886,-4.58553253e-11,2.17268962,3.62574098,1.35753999,-1.34509847,1.04542359e-04,6.03853932,-2.61103622,-1,-0.9974708474761743
1.24672284e+04,2.99999883,-4.40969776e-11,2.16250194,3.62661166,1.35070480,-1.34509847,1.04280098e-04,6.04518426,-2.59104870,-1,-0.9973384816204673
1.30695807e+04,2.99999881,-4.23696014e-11,2.15207599,3.62744500,1.34382515,-1.34509847,1.03905308e-04,6.05187456,-2.57092794,-1,-0.9971998510493522
1.37008705e+04,2.99999878,-4.07099988e-11,2.14174190,3.62832609,1.33689591,-1.34509847,1.03599880e-04,6.05861461,-2.55066020,-1,-0.99705456055156
1.43621183e+04,2.99999875,-3.91069810e-11,2.13114474,3.62916227,1.32992499,-1.34509847,1.03240287e-04,6.06539781,-2.53026308,-1,-0.9969023752603897
1.50557976e+04,2.99999873,-3.75493612e-11,2.12061049,3.63003652,1.32290935,-1.34509847,1.02882181e-04,6.07222783,-2.50972587,-1,-0.9967427259031452
1.57825573e+04,2.99999870,-3.60570921e-11,2.10996121,3.63090168,1.31585439,-1.34509847,1.02537785e-04,6.07909958,-2.48906696,-1,-0.9965754631363649
1.65440989e+04,2.99999867,-3.46098110e-11,2.09925767,3.63177132,1.30876335,-1.34509847,1.02165513e-04,6.08600980,-2.46830050,-1,-0.9964001953621139
1.73421612e+04,2.99999865,-3.32090498e-11,2.08851956,3.63264830,1.30164034,-1.34509847,1.01773298e-04,6.09295325,-2.44743965,-1,-0.9962165223979126
1.81784323e+04,2.99999862,-3.18599896e-11,2.07769932,3.63351862,1.29448958,-1.34509847,1.01364209e-04,6.09992610,-2.42649259,-1,-0.996024055729818
1.90548205e+04,2.99999859,-3.05685073e-11,2.06682649,3.63438804,1.28731431,-1.34509847,1.00967296e-04,6.10692584,-2.40546470,-1,-0.9958223561651536
1.99733037e+04,2.99999857,-2.93199351e-11,2.05591548,3.63525702,1.28012085,-1.34509847,1.00538315e-04,6.11394651,-2.38437548,-1,-0.9956109684928965
2.09359942e+04,2.99999854,-2.81233612e-11,2.04500221,3.63613202,1.27291421,-1.34509847,1.00116358e-04,6.12098289,-2.36324489,-1,-0.9953894065700448
2.19449761e+04,2.99999851,-2.69706200e-11,2.03404728,3.63699836,1.26570407,-1.34509847,9.96616575e-05,6.12802522,-2.34210231,-1,-0.9951571907437886
2.30025408e+04,2.99999848,-2.58609252e-11,2.02306193,3.63785348,1.25850115,-1.34509847,9.91703353e-05,6.13506309,-2.32097561,-1,-0.9949137936515018
2.41116104e+04,2.99999845,-2.48070394e-11,2.01228291,3.63875390,1.25131080,-1.34509847,9.87435428e-05,6.14209123,-2.29988185,-1,-0.9946585427758026
2.52739901e+04,2.99999843,-2.37983308e-11,2.00131004,3.63958829,1.24415560,-1.34509847,9.82471609e-05,6.14908852,-2.27888648,-1,-0.9943910226523405
2.64931853e+04,2.99999840,-2.28356512e-11,1.99049034,3.64043748,1.23704735,-1.34509847,9.77565937e-05,6.15604272,-2.25802792,-1,-0.9941104265180236
2.77716514e+04,2.99999837,-2.19166361e-11,1.97970518,3.64126034,1.23000906,-1.34509847,9.72290563e-05,6.16293118,-2.23736880,-1,-0.9938161892658468
2.91129146e+04,2.99999834,-2.10420321e-11,1.96914967,3.64209429,1.22306340,-1.34509847,9.66978441e-05,6.16973125,-2.21698125,-1,-0.9935074993456261
3.05199793e+04,2.99999831,-2.02290554e-11,1.95873754,3.64290417,1.21623759,-1.34509847,9.62200693e-05,6.17641609,-2.19694143,-1,-0.9931836652987452
3.19963180e+04,2.99999828,-1.94535203e-11,1.94853363,3.64368898,1.20956600,-1.34509847,9.56836804e-05,6.18295223,-2.17735116,-1,-0.992843887934003
3.35453184e+04,2.99999825,-1.87309276e-11,1.93857058,3.64444031,1.20308182,-1.34509847,9.51607942e-05,6.18930677,-2.15830953,-1,-0.9924873875768041
3.51727200e+04,2.99999822,-1.80548797e-11,1.92905057,3.64518955,1.19682335,-1.34509847,9.46414096e-05,6.19544196,-2.13992953,-1,-0.9921128432889484
3.68822502e+04,2.99999819,-1.74379599e-11,1.91991371,3.64590437,1.19082526,-1.34509847,9.41774948e-05,6.20132355,-2.12231026,-1,-0.9917193972143429
3.86756353e+04,2.99999816,-1.68628618e-11,1.91107249,3.64655039,1.18511262,-1.34509847,9.36691689e-05,6.20692708,-2.10552772,-1,-0.9913066520473659
4.05619425e+04,2.99999813,-1.63349297e-11,1.90275145,3.64716762,1.17971763,-1.34509847,9.31733673e-05,6.21222052,-2.08967625,-1,-0.9908725209841416
4.25431097e+04,2.99999810,-1.58588554e-11,1.89501373,3.64777621,1.17463159,-1.34509847,9.27555078e-05,6.21721217,-2.07473291,-1,-0.990416558019593
4.46229227e+04,2.99999807,-1.54193681e-11,1.88762007,3.64832087,1.16984544,-1.34509847,9.23174543e-05,6.22191061,-2.06066952,-1,-0.9899378918569458
4.68078332e+04,2.99999804,-1.50200244e-11,1.88079923,3.64887643,1.16532390,-1.34509847,9.19500454e-05,6.22634996,-2.04738190,-1,-0.9894350376461284
4.91021077e+04,2.99999800,-1.46471532e-11,1.87414449,3.64936534,1.16101872,-1.34509847,9.15598718e-05,6.23057821,-2.03472834,-1,-0.9889070134579084
5.15107111e+04,2.99999797,-1.42977931e-11,1.86776262,3.64985189,1.15685469,-1.34509847,9.12026230e-05,6.23466855,-2.02248777,-1,-0.9883526766272331
5.40367793e+04,2.99999793,-1.39616464e-11,1.86139285,3.65031264,1.15274829,-1.34509847,9.08391418e-05,6.23870304,-2.01041367,-1,-0.9877713054309385
5.66840346e+04,2.99999790,-1.36315174e-11,1.85497923,3.65077947,1.14860784,-1.34509847,9.04769055e-05,6.24277177,-1.99824059,-1,-0.9871620431866893
5.94612410e+04,2.99999786,-1.32991312e-11,1.84840961,3.65127693,1.14432809,-1.34509847,9.01103629e-05,6.24697773,-1.98565774,-1,-0.9865228728716815
6.23740738e+04,2.99999782,-1.29576641e-11,1.84137230,3.65178502,1.13979327,-1.34509847,8.97217036e-05,6.25143472,-1.97232479,-1,-0.9858524883232587
6.54222826e+04,2.99999778,-1.25969323e-11,1.83381759,3.65234382,1.13489831,-1.34509847,8.92900231e-05,6.25624601,-1.95793279,-1,-0.9851509471706437
6.86107221e+04,2.99999774,-1.22112662e-11,1.82556967,3.65296913,1.12952372,-1.34509847,8.88091241e-05,6.26152896,-1.94213014,-1,-0.9844171321111658
7.19411578e+04,2.99999770,-1.17924711e-11,1.81634506,3.65364682,1.12355604,-1.34509847,8.82323623e-05,6.26739559,-1.92457865,-1,-0.9836506368173762
7.54204783e+04,2.99999766,-1.13400539e-11,1.80594859,3.65439778,1.11685589,-1.34509847,8.75794953e-05,6.27398341,-1.90486975,-1,-0.9828498758872566
7.90442042e+04,2.99999762,-1.08495465e-11,1.79433195,3.65523806,1.10936702,-1.34509847,8.68056021e-05,6.28134855,-1.88283603,-1,-0.9820158802486878
8.28175151e+04,2.99999758,-1.03289873e-11,1.78140324,3.65616780,1.10104317,-1.34509847,8.59369441e-05,6.28953734,-1.85834528,-1,-0.9811474578237015
8.67427967e+04,2.99999754,-9.79108483e-12,1.76735094,3.65719015,1.09197231,-1.34509847,8.50010356e-05,6.29846353,-1.83165292,-1,-0.9802440595466536
9.08318541e+04,2.99999751,-9.24707075e-12,1.75234605,3.65825023,1.08234972,-1.34509847,8.39603902e-05,6.30793531,-1.80333201,-1,-0.979302968489668
9.51001871e+04,2.99999747,-8.72009744e-12,1.73689765,3.65933921,1.07244756,-1.34509847,8.29028110e-05,6.31768404,-1.77418332,-1,-0.9783206173946366
9.95674099e+04,2.99999743,-8.22396022e-12,1.72144098,3.66045458,1.06248848,-1.34509847,8.18819886e-05,6.32749048,-1.74485687,-1,-0.9772924920798288
1.04245987e+05,2.99999739,-7.75732389e-12,1.70597614,3.66153306,1.05259911,-1.34509847,8.08430693e-05,6.33723074,-1.71572611,-1,-0.9762157238573462
1.09152368e+05,2.99999736,-7.32271250e-12,1.69084226,3.66264851,1.04280126,-1.34509847,7.98449423e-05,6.34689069,-1.68684315,-1,-0.9750865268738889
1.14289356e+05,2.99999732,-6.91570176e-12,1.67557342,3.66367563,1.03311259,-1.34509847,7.88312313e-05,6.35657788,-1.65803632,-1,-0.9739042559997646
1.19675572e+05,2.99999728,-6.53349910e-12,1.66047082,3.66469291,1.02352673,-1.34509847,7.78129651e-05,6.36602319,-1.62979428,-1,-0.9726646256368863
1.25323646e+05,2.99999725,-6.17802478e-12,1.64565950,3.66574063,1.01402565,-1.34509847,7.68489200e-05,6.37538680,-1.60179244,-1,-0.9713647290077528
1.31241736e+05,2.99999721,-5.84302004e-12,1.63087139,3.66674927,1.00461431,-1.34509847,7.58694983e-05,6.38466363,-1.57404862,-1,-0.9700026885596448
1.37444006e+05,2.99999718,-5.52754304e-12,1.61619916,3.66774546,9.95285812e-01,-1.34550404,7.48284129e-05,6.39383720,-1.54652130,-1,-0.9685752444670258
1.43943328e+05,2.99999714,-5.23394560e-12,1.60162333,3.66872736,9.86034096e-01,-1.34604652,7.38198309e-05,6.40284170,-1.51910311,-1,-0.9670794342564208
1.50753801e+05,2.99999711,-4.95587911e-12,1.58715245,3.66969770,9.76857978e-01,-1.34620178,7.28503508e-05,6.41167946,-1.49178002,-1,-0.9655120130619564
1.57889638e+05,2.99999707,-4.69559855e-12,1.57277368,3.67065622,9.67751560e-01,-1.34668282,7.18678877e-05,6.42036889,-1.46453470,-1,-0.9638697097808123
1.65365643e+05,2.99999704,-4.44881317e-12,1.55838862,3.67157643,9.58718607e-01,-1.34640410,7.09720665e-05,6.42891524,-1.43737308,-1,-0.9621491172923138
1.73203638e+05,2.99999701,-4.21715756e-12,1.54414359,3.67249877,9.49751408e-01,-1.34580586,7.01446027e-05,6.43733083,-1.41026530,-1,-0.9603452132925319
1.81414755e+05,2.99999697,-3.99863031e-12,1.52995658,3.67340216,9.40851120e-01,-1.34571089,6.92545775e-05,6.44561489,-1.38319907,-1,-0.9584554357666497
1.90021694e+05,2.99999694,-3.79453717e-12,1.51603983,3.67434555,9.32005963e-01,-1.34721310,6.82049974e-05,6.45378174,-1.35613692,-1,-0.95647456034022
1.99038855e+05,2.99999691,-3.60063124e-12,1.50201980,3.67522972,9.23227614e-01,-1.34732751,6.73244058e-05,6.46182780,-1.32909777,-1,-0.9543992728726244
2.08490674e+05,2.99999687,-3.41825980e-12,1.48816302,3.67612647,9.14505721e-01,-1.34710495,6.65164349e-05,6.46977163,-1.30204902,-1,-0.9522239494513522
2.18388133e+05,2.99999684,-3.24531929e-12,1.47428396,3.67698718,9.05844773e-01,-1.34716585,6.56667126e-05,6.47761391,-1.27500098,-1,-0.9499460625838846
2.28768629e+05,2.99999681,-3.08226077e-12,1.46064224,3.67788044,8.97237401e-01,-1.34720427,6.48416582e-05,6.48536718,-1.24791866,-1,-0.9475570054010056
2.39643813e+05,2.99999678,-2.92973377e-12,1.44701971,3.67875056,8.88685890e-01,-1.34721157,6.40648939e-05,6.49303255,-1.22080374,-1,-0.9450540964407468
2.51030399e+05,2.99999674,-2.78346075e-12,1.43333708,3.67957455,8.80196583e-01,-1.34751155,6.32122666e-05,6.50060121,-1.19365973,-1,-0.9424334889985042
2.62977519e+05,2.99999671,-2.64706059e-12,1.41991159,3.68043696,8.71759030e-01,-1.34749476,6.24575903e-05,6.50808128,-1.16644659,-1,-0.9396838754106065
2.75479693e+05,2.99999668,-2.51652667e-12,1.40631995,3.68122613,8.63384863e-01,-1.34670591,6.17667567e-05,6.51546562,-1.13918194,-1,-0.936806516891678
2.88597986e+05,2.99999665,-2.39446020e-12,1.39306978,3.68207558,8.55060886e-01,-1.34591061,6.11257356e-05,6.52277012,-1.11180243,-1,-0.9337873594141586
3.02338789e+05,2.99999662,-2.27906359e-12,1.37988227,3.68291228,8.46793732e-01,-1.34696624,6.02722870e-05,6.52999717,-1.08431864,-1,-0.9306249320979999
3.16742127e+05,2.99999658,-2.16915018e-12,1.36678420,3.68374276,8.38583726e-01,-1.34751322,5.94730082e-05,6.53715229,-1.05672548,-1,-0.9273100232433235
3.31831151e+05,2.99999655,-2.06609973e-12,1.35370872,3.68455026,8.30431000e-01,-1.34777006,5.87455891e-05,6.54424202,-1.02901798,-1,-0.9238373046786389
3.47643392e+05,2.99999652,-1.96794534e-12,1.34065929,3.68533314,8.22340526e-01,-1.34657912,5.81778359e-05,6.55127024,-1.00118314,-1,-0.9201981386948108
3.64211981e+05,2.99999649,-1.87486590e-12,1.32772100,3.68611310,8.14311459e-01,-1.34652465,5.74815059e-05,6.55824401,-9.73201464e-01,-1,-0.9163849002367814
3.81601358e+05,2.99999646,-1.78853771e-12,1.31532293,3.68700495,8.06328722e-01,-1.34928196,5.65380549e-05,6.56518237,-9.45024705e-01,-1,-0.9123827585252832
3.99805804e+05,2.99999643,-1.70576289e-12,1.30277024,3.68782479,7.98412688e-01,-1.35102561,5.56901789e-05,6.57207466,-9.16699017e-01,-1,-0.9081930297804686
4.18886984e+05,2.99999639,-1.62789610e-12,1.29014372,3.68859152,7.90565968e-01,-1.34975323,5.52021748e-05,6.57892866,-8.88200075e-01,-1,-0.903801521885585
4.38864449e+05,2.99999636,-1.55289456e-12,1.27752648,3.68932316,7.82794077e-01,-1.34509855,5.50514671e-05,6.58574640,-8.59525106e-01,-1,-0.899203735204297
4.59845264e+05,2.99999633,-1.48336787e-12,1.26547818,3.69016690,7.75082446e-01,-1.34509863,5.44470636e-05,6.59254664,-8.30605257e-01,-1,-0.8943750288709575
