star_age,star_mass,star_mdot,log_Teff,log_R,log_surf_z,surface_h1,surface_he3,log_center_T,log_center_Rho,phase,x
7.32000307e+02,3.99999973,-3.24449752e-10,3.59278011,1.72657351,-1.34509847,6.38455367e-01,5.25064653e-05,5.79776383,-3.57087010,-1,-1.0
7.66812492e+02,3.99999972,-3.20229364e-10,3.59308007,1.72434562,-1.34509847,6.38455367e-01,5.25064653e-05,5.79990805,-3.56441856,-1,-0.9999832272018124
8.03289613e+02,3.99999971,-3.16361199e-10,3.59338738,1.72204221,-1.34509847,6.38455367e-01,5.25064653e-05,5.80212462,-3.55774771,-1,-0.9999656522237123
8.41502144e+02,3.99999969,-3.12262829e-10,3.59369648,1.71966233,-1.34509847,6.38455367e-01,5.25064653e-05,5.80441526,-3.55085084,-1,-0.9999472411107443
8.81508407e+02,3.99999968,-3.07990254e-10,3.59401750,1.71720453,-1.34509847,6.38455367e-01,5.25064653e-05,5.80678094,-3.54372992,-1,-0.9999279657628873
9.23394393e+02,3.99999967,-3.03605157e-10,3.59441563,1.71466489,-1.34509847,6.38455367e-01,5.25064653e-05,5.80922434,-3.53637440,-1,-0.9999077847489675
9.67234462e+02,3.99999966,-2.99309971e-10,3.59478656,1.71204525,-1.34509847,6.38455367e-01,5.25064653e-05,5.81174529,-3.52878205,-1,-0.9998866622417228
1.01314336e+03,3.99999964,-2.94815660e-10,3.59514327,1.70934355,-1.34509847,6.38455367e-01,5.25064653e-05,5.81434597,-3.52094850,-1,-0.9998645429555831
1.06132712e+03,3.99999963,-2.90174004e-10,3.59551631,1.70655365,-1.34509847,6.38455367e-01,5.25064653e-05,5.81703161,-3.51285755,-1,-0.9998413276221475
1.11178266e+03,3.99999961,-2.85478142e-10,3.59590360,1.70367866,-1.34509847,6.38455367e-01,5.25064653e-05,5.81979918,-3.50451829,-1,-0.9998170177263491
1.16459437e+03,3.99999960,-2.80736132e-10,3.59631101,1.70071777,-1.34509847,6.38455367e-01,5.25064653e-05,5.82264979,-3.49592999,-1,-0.9997915726083892
1.21984065e+03,3.99999958,-2.75943084e-10,3.59671317,1.69767212,-1.34509847,6.38455367e-01,5.25064653e-05,5.82558252,-3.48709145,-1,-0.9997649544945003
1.27760761e+03,3.99999957,-2.71065823e-10,3.59713191,1.69454071,-1.34509847,6.38455367e-01,5.25064653e-05,5.82859830,-3.47800296,-1,-0.9997371218961734
1.33813737e+03,3.99999955,-2.66157841e-10,3.59757820,1.69131831,-1.34509847,6.38455367e-01,5.25064653e-05,5.83170179,-3.46864871,-1,-0.9997079581579932
1.40171941e+03,3.99999954,-2.61282978e-10,3.59809015,1.68799653,-1.34509847,6.38455367e-01,5.25064653e-05,5.83490077,-3.45900651,-1,-0.9996773238061055
1.46810311e+03,3.99999952,-2.56381068e-10,3.59853951,1.68459132,-1.34509847,6.38455367e-01,5.25064653e-05,5.83818170,-3.44911733,-1,-0.9996453395912956
1.53756403e+03,3.99999950,-2.51321292e-10,3.59901121,1.68109587,-1.34509847,6.38455367e-01,5.25064653e-05,5.84155018,-3.43896462,-1,-0.9996118727464802
1.61051614e+03,3.99999948,-2.46257830e-10,3.59950245,1.67750194,-1.34509847,6.38455367e-01,5.25064653e-05,5.84501382,-3.42852318,-1,-0.999576723817495
1.68658143e+03,3.99999947,-2.41220059e-10,3.60000825,1.67382333,-1.34509847,6.38455367e-01,5.25064653e-05,5.84855998,-3.41783615,-1,-0.9995400749326794
1.76658903e+03,3.99999945,-2.36124932e-10,3.60053072,1.67004209,-1.34509847,6.38455367e-01,5.25064653e-05,5.85220522,-3.40684723,-1,-0.9995015266103529
1.84997507e+03,3.99999943,-2.31006473e-10,3.60103953,1.66617798,-1.34509847,6.38455367e-01,5.25064653e-05,5.85593109,-3.39561322,-1,-0.9994613505277377
1.93765432e+03,3.99999941,-2.25861222e-10,3.60157318,1.66221160,-1.34509847,6.38455367e-01,5.25064653e-05,5.85975604,-3.38408002,-1,-0.9994191059410941
2.02915169e+03,3.99999939,-2.20734121e-10,3.60214692,1.65815765,-1.34509847,6.38455367e-01,5.25064653e-05,5.86366512,-3.37228979,-1,-0.9993750217527072
2.12509858e+03,3.99999937,-2.15648593e-10,3.60269774,1.65400789,-1.34509847,6.38455367e-01,5.25064653e-05,5.86766751,-3.36021418,-1,-0.9993287937488433
2.22553025e+03,3.99999934,-2.10497756e-10,3.60325592,1.64976640,-1.34509847,6.38455367e-01,5.25064653e-05,5.87175878,-3.34786916,-1,-0.9992804049409433
2.33051690e+03,3.99999932,-2.05391371e-10,3.60384857,1.64543456,-1.34509847,6.38455367e-01,5.25064653e-05,5.87593724,-3.33525753,-1,-0.9992298215060673
2.44050007e+03,3.99999930,-2.00305534e-10,3.60443255,1.64100985,-1.34509847,6.38455367e-01,5.25064653e-05,5.88020640,-3.32236771,-1,-0.9991768307065977
2.55575756e+03,3.99999928,-1.95234638e-10,3.60506139,1.63649006,-1.34509847,6.38455367e-01,5.25064653e-05,5.88456724,-3.30919922,-1,-0.9991212986962005
2.67630564e+03,3.99999926,-1.90225722e-10,3.60567497,1.63188156,-1.34509847,6.38455367e-01,5.25064653e-05,5.88901450,-3.29576587,-1,-0.9990632176358553
2.80244482e+03,3.99999923,-1.85196650e-10,3.60630771,1.62718333,-1.34509847,6.38455367e-01,5.25064653e-05,5.89354937,-3.28206558,-1,-0.9990024427373626
2.93445450e+03,3.99999921,-1.80289485e-10,3.60695360,1.62239482,-1.34509847,6.38455367e-01,5.25064654e-05,5.89817232,-3.26809569,-1,-0.9989388393834956
3.07261669e+03,3.99999918,-1.75334413e-10,3.60759636,1.61751849,-1.34509847,6.38455367e-01,5.25064654e-05,5.90288200,-3.25386691,-1,-0.9988722716995074
3.21725381e+03,3.99999916,-1.70448449e-10,3.60827188,1.61255304,-1.34509847,6.38455367e-01,5.25064654e-05,5.90767865,-3.23937465,-1,-0.9988025843407798
3.36865021e+03,3.99999913,-1.65628613e-10,3.60895241,1.60750063,-1.34509847,6.38455367e-01,5.25064654e-05,5.91256171,-3.22462457,-1,-0.998729640305135
3.52713834e+03,3.99999911,-1.60883898e-10,3.60965801,1.60236137,-1.34509847,6.38455367e-01,5.25064655e-05,5.91751892,-3.20964134,-1,-0.9986532794154175
3.69298593e+03,3.99999908,-1.56185534e-10,3.61032183,1.59714292,-1.34509847,6.38455367e-01,5.25064656e-05,5.92248707,-3.19455145,-1,-0.9985733726771028
3.86658454e+03,3.99999906,-1.51535868e-10,3.61102961,1.59183945,-1.34509847,6.38455367e-01,5.25064657e-05,5.92758357,-3.17913020,-1,-0.9984897314333496
4.04822206e+03,3.99999903,-1.46943020e-10,3.61173765,1.58645443,-1.34509847,6.38455367e-01,5.25064658e-05,5.93279289,-3.16340366,-1,-0.9984022169763788
4.23833995e+03,3.99999900,-1.42522488e-10,3.61252187,1.58098366,-1.34509847,6.38455367e-01,5.25064659e-05,5.93809016,-3.14741838,-1,-0.9983106166071171
4.43712474e+03,3.99999897,-1.38107282e-10,3.61323220,1.57543866,-1.34509847,6.38455367e-01,5.25064662e-05,5.94346285,-3.13121122,-1,-0.9982148404538701
4.64518983e+03,3.99999895,-1.33750776e-10,3.61400260,1.56981416,-1.34509847,6.38455367e-01,5.25064667e-05,5.94891415,-3.11476904,-1,-0.998114592975453
4.86312673e+03,3.99999892,-1.29480286e-10,3.61473592,1.56411472,-1.34509847,6.38455367e-01,5.25064674e-05,5.95444144,-3.09810191,-1,-0.9980095891774634
5.09109362e+03,3.99999889,-1.25283279e-10,3.61551980,1.55834072,-1.34509847,6.38455367e-01,5.25064683e-05,5.96004270,-3.08121165,-1,-0.9978997528474712
5.32938675e+03,3.99999886,-1.21206177e-10,3.61628055,1.55249728,-1.34509847,6.38455367e-01,5.25064693e-05,5.96571414,-3.06411329,-1,-0.9977849412497802
5.57908909e+03,3.99999883,-1.17194648e-10,3.61706233,1.54658089,-1.34509847,6.38455367e-01,5.25064708e-05,5.97145958,-3.04679589,-1,-0.997664632600502
5.84026524e+03,3.99999880,-1.13264362e-10,3.61787292,1.54059559,-1.34509847,6.38455367e-01,5.25064729e-05,5.97727452,-3.02927292,-1,-0.9975387957748232
6.11337704e+03,3.99999877,-1.09434268e-10,3.61868332,1.53454357,-1.34509847,6.38455367e-01,5.25064761e-05,5.98315786,-3.01155149,-1,-0.9974072082544181
6.39940675e+03,3.99999874,-1.05690556e-10,3.61946615,1.52842631,-1.34509847,6.38455367e-01,5.25064804e-05,5.98910775,-2.99363597,-1,-0.997269396778308
6.69826587e+03,3.99999871,-1.02007377e-10,3.62027584,1.52224694,-1.34509847,6.38455367e-01,5.25064866e-05,5.99512087,-2.97553438,-1,-0.9971254039865237
7.01158578e+03,3.99999868,-9.84613632e-11,3.62111718,1.51600113,-1.34509847,6.38455367e-01,5.25064957e-05,6.00120095,-2.95723414,-1,-0.9969744438667103
7.33880598e+03,3.99999865,-9.50049583e-11,3.62194558,1.50969754,-1.34509847,6.38455367e-01,5.25065080e-05,6.00734014,-2.93876214,-1,-0.9968167864723961
7.68160691e+03,3.99999861,-9.15790584e-11,3.62273507,1.50333879,-1.34509847,6.38455367e-01,5.25065222e-05,6.01353525,-2.92012549,-1,-0.9966516221537133
8.04000150e+03,3.99999858,-8.82875231e-11,3.62359327,1.49692088,-1.34509847,6.38455367e-01,5.25065410e-05,6.01978885,-2.90131188,-1,-0.9964789446808809
8.41529857e+03,3.99999855,-8.51361803e-11,3.62448232,1.49044277,-1.34509847,6.38455367e-01,5.25065677e-05,6.02610266,-2.88231769,-1,-0.9962981234536158
8.80769168e+03,3.99999852,-8.20095856e-11,3.62530376,1.48391673,-1.34509847,6.38455367e-01,5.25066026e-05,6.03246621,-2.86317677,-1,-0.9961090652131116
9.21797638e+03,3.99999848,-7.89821295e-11,3.62615529,1.47733896,-1.34509847,6.38455367e-01,5.25066472e-05,6.03888285,-2.84387952,-1,-0.9959113866568092
9.64781338e+03,3.99999845,-7.60248276e-11,3.62700835,1.47071059,-1.34509847,6.38455367e-01,5.25067101e-05,6.04535137,-2.82442710,-1,-0.9957042876409178
1.00972178e+04,3.99999842,-7.31855844e-11,3.62786728,1.46403501,-1.34509847,6.38455367e-01,5.25067972e-05,6.05186857,-2.80483442,-1,-0.9954877608804963
1.05671829e+04,3.99999838,-7.04338238e-11,3.62874689,1.45731251,-1.34509847,6.38455367e-01,5.25069182e-05,6.05843356,-2.78510101,-1,-0.9952613278146751
1.10593592e+04,3.99999835,-6.77579301e-11,3.62962237,1.45054563,-1.34509847,6.38455367e-01,5.25070883e-05,6.06504358,-2.76523647,-1,-0.9950241932092896
1.15741040e+04,3.99999832,-6.51602014e-11,3.63048883,1.44373879,-1.34509847,6.38455366e-01,5.25073243e-05,6.07169402,-2.74525266,-1,-0.9947761849142492
1.21124737e+04,3.99999828,-6.26608823e-11,3.63136694,1.43689143,-1.34509847,6.38455366e-01,5.25076480e-05,6.07838595,-2.72514541,-1,-0.9945167939473111
1.26755932e+04,3.99999825,-6.02380608e-11,3.63225469,1.43000608,-1.34509847,6.38455366e-01,5.25080863e-05,6.08511795,-2.70491828,-1,-0.9942454783223664
1.32650490e+04,3.99999821,-5.78896739e-11,3.63312290,1.42308665,-1.34509847,6.38455366e-01,5.25086704e-05,6.09188657,-2.68458667,-1,-0.9939614736506153
1.38819350e+04,3.99999818,-5.56375374e-11,3.63403126,1.41613082,-1.34509847,6.38455366e-01,5.25094595e-05,6.09869376,-2.66414560,-1,-0.9936642528820047
1.45270864e+04,3.99999814,-5.34494448e-11,3.63491540,1.40914635,-1.34509847,6.38455365e-01,5.25104909e-05,6.10553194,-2.64361886,-1,-0.9933534136102784
1.52021255e+04,3.99999811,-5.13348390e-11,3.63583056,1.40213229,-1.34509847,6.38455365e-01,5.25117062e-05,6.11240148,-2.62300631,-1,-0.9930281741979005
1.59080739e+04,3.99999807,-4.93104208e-11,3.63670801,1.39509576,-1.34509847,6.38455364e-01,5.25134243e-05,6.11929564,-2.60232245,-1,-0.9926880424295553
1.66467431e+04,3.99999804,-4.73388925e-11,3.63760472,1.38803903,-1.34509847,6.38455364e-01,5.25160657e-05,6.12621176,-2.58158058,-1,-0.9923321455095848
1.74198080e+04,3.99999800,-4.54540882e-11,3.63849307,1.38096718,-1.34509847,6.38455362e-01,5.25196179e-05,6.13314468,-2.56079101,-1,-0.9919596764573388
1.82290010e+04,3.99999797,-4.36535616e-11,3.63940309,1.37388305,-1.34509847,6.38455361e-01,5.25238842e-05,6.14009142,-2.53996067,-1,-0.9915698005881924
1.90753744e+04,3.99999793,-4.19088621e-11,3.64027063,1.36679768,-1.34509847,6.38455359e-01,5.25296772e-05,6.14704236,-2.51912169,-1,-0.9911620108953164
1.99611641e+04,3.99999789,-4.02344680e-11,3.64115872,1.35971492,-1.34509847,6.38455357e-01,5.25366015e-05,6.15399406,-2.49828807,-1,-0.9907352301036284
2.08884455e+04,3.99999786,-3.86353785e-11,3.64208719,1.35264112,-1.34509847,6.38455353e-01,5.25467413e-05,6.16093927,-2.47748054,-1,-0.990288458268271
2.18584943e+04,3.99999782,-3.70983994e-11,3.64296119,1.34559481,-1.34509847,6.38455348e-01,5.25632863e-05,6.16785956,-2.45675463,-1,-0.9898210807464506
2.28740083e+04,3.99999778,-3.56336277e-11,3.64385547,1.33858416,-1.34509847,6.38455341e-01,5.25849868e-05,6.17474660,-2.43613441,-1,-0.9893317977158506
2.39365967e+04,3.99999775,-3.42291423e-11,3.64469414,1.33163198,-1.34509847,6.38455330e-01,5.26157001e-05,6.18157820,-2.41568323,-1,-0.9888198338506232
2.50490862e+04,3.99999771,-3.28896661e-11,3.64551932,1.32475581,-1.34509847,6.38455315e-01,5.26630379e-05,6.18833748,-2.39544885,-1,-0.9882838272233677
2.62156324e+04,3.99999767,-3.16411214e-11,3.64641491,1.31797100,-1.34509847,6.38455293e-01,5.27288978e-05,6.19500852,-2.37548278,-1,-0.9877217756316901
2.74370738e+04,3.99999764,-3.04436895e-11,3.64725408,1.31131399,-1.34509847,6.38455264e-01,5.28150295e-05,6.20155600,-2.35589220,-1,-0.9871332750793664
2.87159435e+04,3.99999760,-2.93218206e-11,3.64802963,1.30481384,-1.34509847,6.38455229e-01,5.29184295e-05,6.20795031,-2.33676208,-1,-0.9865171050979002
3.00556882e+04,3.99999756,-2.82704053e-11,3.64882102,1.29849546,-1.34509847,6.38455179e-01,5.30695860e-05,6.21416663,-2.31816731,-1,-0.9858716050387712
3.14621491e+04,3.99999752,-2.72953333e-11,3.64958877,1.29240124,-1.34509847,6.38455114e-01,5.32652306e-05,6.22016340,-2.30022897,-1,-0.9851939605635868
3.29345756e+04,3.99999748,-2.63811569e-11,3.65028868,1.28655246,-1.34509847,6.38455037e-01,5.34951822e-05,6.22592006,-2.28301203,-1,-0.9844845333176249
3.44797239e+04,3.99999744,-2.55365407e-11,3.65093640,1.28098374,-1.34509847,6.38454935e-01,5.38023297e-05,6.23140187,-2.26661942,-1,-0.9837400681079373
3.60987649e+04,3.99999740,-2.47666285e-11,3.65161171,1.27569096,-1.34509847,6.38454789e-01,5.42397662e-05,6.23661304,-2.25103458,-1,-0.982960000785236
3.77974185e+04,3.99999736,-2.40568733e-11,3.65221559,1.27069093,-1.34509847,6.38454625e-01,5.47313412e-05,6.24153698,-2.23631158,-1,-0.9821415754544698
3.95792637e+04,3.99999732,-2.34089596e-11,3.65280441,1.26596167,-1.34509847,6.38454408e-01,5.53841792e-05,6.24619490,-2.22238619,-1,-0.981283067723886
4.14462708e+04,3.99999728,-2.28059156e-11,3.65333172,1.26146887,-1.34509847,6.38454146e-01,5.61683906e-05,6.25062063,-2.20915620,-1,-0.9803835282866751
4.34027528e+04,3.99999723,-2.22434392e-11,3.65387774,1.25715746,-1.34509847,6.38453840e-01,5.70870179e-05,6.25486780,-2.19646025,-1,-0.9794408791038233
4.54512892e+04,3.99999719,-2.17159118e-11,3.65440255,1.25296243,-1.34509847,6.38453516e-01,5.80577553e-05,6.25900058,-2.18410726,-1,-0.9784538773509311
4.76006740e+04,3.99999714,-2.12089420e-11,3.65489496,1.24880588,-1.34509847,6.38453155e-01,5.91412615e-05,6.26309612,-2.17186611,-1,-0.9774182860061839
4.98501982e+04,3.99999709,-2.07029134e-11,3.65539017,1.24459392,-1.34509847,6.38452727e-01,6.04258680e-05,6.26724665,-2.15945980,-1,-0.9763344466716359
5.22027747e+04,3.99999705,-2.01931232e-11,3.65592007,1.24023247,-1.34509847,6.38452278e-01,6.17723201e-05,6.27154476,-2.14661167,-1,-0.9752009558880145
5.46619858e+04,3.99999700,-1.96675977e-11,3.65645639,1.23562467,-1.34509847,6.38451812e-01,6.31700402e-05,6.27608607,-2.13303695,-1,-0.9740160876735996
5.72332671e+04,3.99999695,-1.91151722e-11,3.65706565,1.23065698,-1.34509847,6.38451388e-01,6.44421394e-05,6.28098203,-2.11840166,-1,-0.9727772231114279
5.99201311e+04,3.99999690,-1.85291352e-11,3.65774722,1.22521263,-1.34509847,6.38450919e-01,6.58511362e-05,6.28634797,-2.10236110,-1,-0.9714826698499955
6.27224930e+04,3.99999685,-1.78983786e-11,3.65845068,1.21919022,-1.34509847,6.38450472e-01,6.71910869e-05,6.29228390,-2.08461530,-1,-0.9701324687466428
6.56404220e+04,3.99999680,-1.72174566e-11,3.65927224,1.21250720,-1.34509847,6.38450036e-01,6.84990469e-05,6.29887157,-2.06492194,-1,-0.9687265864602383
6.86786676e+04,3.99999675,-1.64870352e-11,3.66014002,1.20506886,-1.34509847,6.38449677e-01,6.95771560e-05,6.30620476,-2.04300159,-1,-0.967262734642464
7.18364705e+04,3.99999670,-1.57185915e-11,3.66112481,1.19689290,-1.34509847,6.38449427e-01,7.03243536e-05,6.31426618,-2.01890389,-1,-0.9657412791303296
7.51202471e+04,3.99999665,-1.49273607e-11,3.66219968,1.18805265,-1.34509847,6.38449216e-01,7.09591161e-05,6.32298384,-1.99284173,-1,-0.964159128449333
7.85306524e+04,3.99999660,-1.41386970e-11,3.66327338,1.17876151,-1.34523493,6.38468670e-01,7.14364008e-05,6.33114871,-1.96378876,-1,-0.9625159670150658
8.20883333e+04,3.99999655,-1.33771075e-11,3.66440370,1.16932282,-1.34562218,6.38524140e-01,7.15612358e-05,6.33871623,-1.93221655,-1,-0.9608018469806202
8.58085754e+04,3.99999650,-1.26648349e-11,3.66553840,1.15991118,-1.34584845,6.38554247e-01,7.16079500e-05,6.34664509,-1.90087169,-1,-0.9590094036176987
8.97012422e+04,3.99999645,-1.19917975e-11,3.66666726,1.15057474,-1.34586975,6.38559529e-01,7.16357664e-05,6.35465094,-1.87004200,-1,-0.9571338846105553
9.37738440e+04,3.99999640,-1.13708609e-11,3.66777570,1.14132344,-1.34580644,6.38549195e-01,7.16501669e-05,6.36272226,-1.83951564,-1,-0.9551716714346352
9.80342290e+04,3.99999636,-1.07794112e-11,3.66884644,1.13217200,-1.34563972,6.38514182e-01,7.16567759e-05,6.37080648,-1.80925951,-1,-0.9531189827623737
1.02491881e+05,3.99999631,-1.02243894e-11,3.66990253,1.12311987,-1.34607878,6.38554269e-01,7.16577418e-05,6.37888421,-1.77922711,-1,-0.95097124922062
1.07158069e+05,3.99999627,-9.70714676e-12,3.67098537,1.11415950,-1.34630050,6.38574037e-01,7.16580797e-05,6.38695143,-1.74937124,-1,-0.9487230413121228
1.12042219e+05,3.99999622,-9.21717561e-12,3.67203564,1.10529754,-1.34639976,6.38578944e-01,7.16582469e-05,6.39498992,-1.71968643,-1,-0.9463698175122488
1.17152581e+05,3.99999617,-8.76023464e-12,3.67308425,1.09652584,-1.34648286,6.38580545e-01,7.16582974e-05,6.40299939,-1.69013566,-1,-0.9439076029028753
1.22497610e+05,3.99999613,-8.32902644e-12,3.67410940,1.08784484,-1.34643558,6.38572370e-01,7.16584261e-05,6.41097069,-1.66069845,-1,-0.9413323237951868
1.28094316e+05,3.99999608,-7.92355391e-12,3.67513726,1.07925172,-1.34594984,6.38515447e-01,7.16592106e-05,6.41890110,-1.63134001,-1,-0.9386357846307267
1.33951353e+05,3.99999604,-7.54190583e-12,3.67618136,1.07074013,-1.34627033,6.38546831e-01,7.16587733e-05,6.42679358,-1.60202958,-1,-0.9358138158408364
1.40077658e+05,3.99999599,-7.18346541e-12,3.67721461,1.06230980,-1.34625003,6.38542538e-01,7.16588247e-05,6.43465338,-1.57275952,-1,-0.9328621115051204
1.46488628e+05,3.99999595,-6.84225572e-12,3.67817956,1.05396867,-1.34587372,6.38502468e-01,7.16593759e-05,6.44247597,-1.54353574,-1,-0.9297732532218411
1.53197460e+05,3.99999590,-6.52177264e-12,3.67920581,1.04570124,-1.34603552,6.38513264e-01,7.16592144e-05,6.45027809,-1.51430350,-1,-0.9265408825674271
1.60222095e+05,3.99999586,-6.22122865e-12,3.68023008,1.03751295,-1.34618186,6.38522719e-01,7.16590652e-05,6.45805950,-1.48506265,-1,-0.9231563554199341
1.67568106e+05,3.99999582,-5.93606915e-12,3.68123051,1.02940447,-1.34617880,6.38514793e-01,7.16591623e-05,6.46581344,-1.45580077,-1,-0.9196169866619441
1.75257921e+05,3.99999577,-5.66694821e-12,3.68221630,1.02137807,-1.34620425,6.38514725e-01,7.16591587e-05,6.47353853,-1.42650331,-1,-0.9159119702978628
1.83300468e+05,3.99999573,-5.41276879e-12,3.68318500,1.01343334,-1.34607135,6.38504119e-01,7.16593085e-05,6.48123713,-1.39715375,-1,-0.9120370047435686
1.91725387e+05,3.99999568,-5.17433048e-12,3.68420505,1.00556368,-1.34628099,6.38510794e-01,7.16591880e-05,6.48892043,-1.36771022,-1,-0.9079778092023157
2.00532039e+05,3.99999564,-4.94676101e-12,3.68517167,9.97780474e-01,-1.34622065,6.38506583e-01,7.16592286e-05,6.49658067,-1.33818984,-1,-0.9037346915495802
2.09757396e+05,3.99999559,-4.73251251e-12,3.68614412,9.90083915e-01,-1.34586254,6.38483418e-01,7.16595999e-05,6.50422447,-1.30855683,-1,-0.8992898383704734
2.19410029e+05,3.99999555,-4.53149587e-12,3.68717344,9.82467322e-01,-1.34725490,6.38542009e-01,7.16588599e-05,6.51185885,-1.27878156,-1,-0.8946391200864221
2.29513968e+05,3.99999551,-4.34091075e-12,3.68817672,9.74939218e-01,-1.34716207,6.38536243e-01,7.16589326e-05,6.51948086,-1.24885137,-1,-0.8897709588450033
2.40086811e+05,3.99999546,-4.16097763e-12,3.68915797,9.67504676e-01,-1.34646684,6.38502065e-01,7.16593951e-05,6.52708916,-1.21875649,-1,-0.8846768757845053
2.51146603e+05,3.99999542,-3.99096359e-12,3.69013647,9.60166028e-01,-1.34579850,6.38469076e-01,7.16598464e-05,6.53468837,-1.18847283,-1,-0.879348176674925
2.62738894e+05,3.99999537,-3.83252012e-12,3.69119912,9.52920604e-01,-1.34761560,6.38532562e-01,7.16589552e-05,6.54229398,-1.15794654,-1,-0.8737629151501427
