star_age,star_mass,star_mdot,log_Teff,log_R,log_surf_z,surface_h1,surface_he3,log_center_T,log_center_Rho,phase,x
5.76997600e+02,5.19999966,-5.14468163e-10,3.58996358,1.83481731,-1.34509847,6.38455367e-01,5.25064653e-05,5.79643692,-3.78094118,-1,-1.0
6.03297492e+02,5.19999965,-5.08524189e-10,3.59162396,1.83257053,-1.34509847,6.38455367e-01,5.25064653e-05,5.79845258,-3.77487201,-1,-0.9999743663339629
6.30762465e+02,5.19999963,-5.06900336e-10,3.59225031,1.83037518,-1.34509847,6.38455367e-01,5.25064653e-05,5.80053603,-3.76859372,-1,-0.9999475971006292
6.59500360e+02,5.19999962,-5.02198250e-10,3.59254323,1.82814802,-1.34509847,6.38455367e-01,5.25064653e-05,5.80269058,-3.76210066,-1,-0.9999195871908152
6.89585442e+02,5.19999960,-4.95871161e-10,3.59285662,1.82584716,-1.34509847,6.38455367e-01,5.25064653e-05,5.80491633,-3.75539127,-1,-0.9998902642207936
7.21032780e+02,5.19999959,-4.89584063e-10,3.59322206,1.82347235,-1.34509847,6.38455367e-01,5.25064653e-05,5.80721301,-3.74846704,-1,-0.9998596135032908
7.53897583e+02,5.19999957,-4.83199919e-10,3.59358227,1.82102401,-1.34509847,6.38455367e-01,5.25064653e-05,5.80958117,-3.74132739,-1,-0.999827581227855
7.88244373e+02,5.19999956,-4.76560732e-10,3.59393360,1.81850109,-1.34509847,6.38455367e-01,5.25064653e-05,5.81202194,-3.73396813,-1,-0.9997941045069503
8.24142995e+02,5.19999954,-4.69683807e-10,3.59430255,1.81590139,-1.34509847,6.38455367e-01,5.25064653e-05,5.81453705,-3.72638236,-1,-0.9997591152648827
8.61658961e+02,5.19999952,-4.62716422e-10,3.59467269,1.81322454,-1.34509847,6.38455367e-01,5.25064653e-05,5.81712727,-3.71856959,-1,-0.9997225496491949
9.00857844e+02,5.19999950,-4.55593384e-10,3.59503766,1.81047024,-1.34509847,6.38455367e-01,5.25064653e-05,5.81979296,-3.71052908,-1,-0.9996843437479749
9.41810882e+02,5.19999948,-4.48310472e-10,3.59543563,1.80763637,-1.34509847,6.38455367e-01,5.25064653e-05,5.82253511,-3.70225685,-1,-0.9996444281278158
9.84630462e+02,5.19999947,-4.41042053e-10,3.59583266,1.80472133,-1.34509847,6.38455367e-01,5.25064653e-05,5.82535648,-3.69374521,-1,-0.9996026932486929
1.02953506e+03,5.19999945,-4.33652674e-10,3.59629829,1.80171594,-1.34509847,6.38455367e-01,5.25064653e-05,5.82826442,-3.68497144,-1,-0.9995589261690158
1.07641713e+03,5.19999943,-4.26332631e-10,3.59671803,1.79863160,-1.34509847,6.38455367e-01,5.25064653e-05,5.83125012,-3.67596018,-1,-0.9995132317104413
1.12534936e+03,5.19999941,-4.18774116e-10,3.59715556,1.79546636,-1.34509847,6.38455367e-01,5.25064653e-05,5.83431447,-3.66671210,-1,-0.9994655390262938
1.17639148e+03,5.19999938,-4.11175812e-10,3.59759259,1.79222132,-1.34509847,6.38455367e-01,5.25064653e-05,5.83745669,-3.65722794,-1,-0.999415789899647
1.22993749e+03,5.19999936,-4.03467107e-10,3.59804304,1.78888492,-1.34509847,6.38455367e-01,5.25064653e-05,5.84068784,-3.64747315,-1,-0.9993636003112655
1.28586158e+03,5.19999934,-3.95726441e-10,3.59852883,1.78546404,-1.34509847,6.38455367e-01,5.25064653e-05,5.84400130,-3.63747248,-1,-0.9993090928841442
1.34412621e+03,5.19999932,-3.88097801e-10,3.59901928,1.78196319,-1.34509847,6.38455367e-01,5.25064653e-05,5.84739283,-3.62723609,-1,-0.999252304207324
1.40528561e+03,5.19999929,-3.80276573e-10,3.59951507,1.77836824,-1.34509847,6.38455367e-01,5.25064653e-05,5.85087605,-3.61672406,-1,-0.999192694090498
1.46901800e+03,5.19999927,-3.72535454e-10,3.60002946,1.77469218,-1.34509847,6.38455367e-01,5.25064653e-05,5.85443838,-3.60597368,-1,-0.999130576162371
1.53570095e+03,5.19999925,-3.64682546e-10,3.60053898,1.77092839,-1.34509847,6.38455367e-01,5.25064653e-05,5.85808632,-3.59496377,-1,-0.9990655824175044
1.60532074e+03,5.19999922,-3.56813576e-10,3.60104758,1.76708099,-1.34509847,6.38455367e-01,5.25064653e-05,5.86181619,-3.58370721,-1,-0.9989977262283447
1.67815452e+03,5.19999920,-3.48931235e-10,3.60161119,1.76314377,-1.34509847,6.38455367e-01,5.25064653e-05,5.86563299,-3.57218629,-1,-0.9989267374656251
1.75412062e+03,5.19999917,-3.41253141e-10,3.60219232,1.75912265,-1.34509847,6.38455367e-01,5.25064653e-05,5.86953149,-3.56041652,-1,-0.9988526957304903
1.83370743e+03,5.19999914,-3.33435077e-10,3.60273917,1.75501236,-1.34509847,6.38455367e-01,5.25064653e-05,5.87351759,-3.54838166,-1,-0.9987751250047817
1.91667509e+03,5.19999912,-3.25591109e-10,3.60330733,1.75082127,-1.34509847,6.38455367e-01,5.25064653e-05,5.87758257,-3.53610849,-1,-0.9986942590723924
2.00343107e+03,5.19999909,-3.17802297e-10,3.60387542,1.74654420,-1.34509847,6.38455367e-01,5.25064653e-05,5.88173144,-3.52357822,-1,-0.9986097007853074
2.09419833e+03,5.19999906,-3.10129754e-10,3.60453854,1.74217572,-1.34509847,6.38455367e-01,5.25064653e-05,5.88596803,-3.51078276,-1,-0.9985212328315248
2.18889500e+03,5.19999903,-3.02529839e-10,3.60514750,1.73772736,-1.34509847,6.38455367e-01,5.25064653e-05,5.89028383,-3.49774590,-1,-0.9984289350071229
2.28775482e+03,5.19999900,-2.94860402e-10,3.60575371,1.73319778,-1.34509847,6.38455367e-01,5.25064653e-05,5.89467906,-3.48446940,-1,-0.9983325794931777
2.39119586e+03,5.19999897,-2.87238449e-10,3.60638359,1.72858236,-1.34509847,6.38455367e-01,5.25064653e-05,5.89915822,-3.47093564,-1,-0.998231758810192
2.49929522e+03,5.19999894,-2.79755879e-10,3.60703753,1.72388350,-1.34509847,6.38455367e-01,5.25064653e-05,5.90371943,-3.45715656,-1,-0.9981263978112547
2.61218530e+03,5.19999891,-2.72264569e-10,3.60769567,1.71910463,-1.34509847,6.38455367e-01,5.25064653e-05,5.90835959,-3.44313701,-1,-0.998016367450308
2.73013191e+03,5.19999888,-2.65019771e-10,3.60841125,1.71424198,-1.34509847,6.38455367e-01,5.25064653e-05,5.91308209,-3.42887047,-1,-0.9979014086508214
2.85329046e+03,5.19999885,-2.57743723e-10,3.60906467,1.70930349,-1.34509847,6.38455367e-01,5.25064653e-05,5.91788148,-3.41437415,-1,-0.997781369939624
2.98196019e+03,5.19999882,-2.50485725e-10,3.60974096,1.70428700,-1.34509847,6.38455367e-01,5.25064653e-05,5.92275886,-3.39964770,-1,-0.9976559596570304
3.11638569e+03,5.19999878,-2.43385435e-10,3.61043520,1.69919294,-1.34509847,6.38455367e-01,5.25064653e-05,5.92771418,-3.38469191,-1,-0.9975249394089675
3.25680993e+03,5.19999875,-2.36360318e-10,3.61112334,1.69402577,-1.34509847,6.38455367e-01,5.25064654e-05,5.93267486,-3.36965552,-1,-0.9973880723803245
3.40355541e+03,5.19999871,-2.29490579e-10,3.61190252,1.68877674,-1.34509847,6.38455367e-01,5.25064654e-05,5.93777910,-3.35425883,-1,-0.9972450442406359
3.55680135e+03,5.19999868,-2.22784276e-10,3.61264288,1.68345624,-1.34509847,6.38455367e-01,5.25064655e-05,5.94293849,-3.33868716,-1,-0.9970956803098828
3.71685301e+03,5.19999865,-2.16114891e-10,3.61339321,1.67806192,-1.34509847,6.38455367e-01,5.25064656e-05,5.94819174,-3.32285308,-1,-0.9969396830608781
3.88397380e+03,5.19999861,-2.09563259e-10,3.61412852,1.67259762,-1.34509847,6.38455367e-01,5.25064657e-05,5.95351823,-3.30680519,-1,-0.9967767957562947
4.05853134e+03,5.19999857,-2.03126553e-10,3.61491294,1.66706124,-1.34509847,6.38455367e-01,5.25064659e-05,5.95891639,-3.29054525,-1,-0.996606660088642
4.24104034e+03,5.19999854,-1.96786452e-10,3.61565012,1.66145816,-1.34509847,6.38455367e-01,5.25064662e-05,5.96438148,-3.27408482,-1,-0.9964287743864968
4.43160220e+03,5.19999850,-1.90508996e-10,3.61639572,1.65579094,-1.34509847,6.38455367e-01,5.25064666e-05,5.96991154,-3.25743469,-1,-0.9962430398185128
4.63063243e+03,5.19999846,-1.84421247e-10,3.61722632,1.65005467,-1.34509847,6.38455367e-01,5.25064671e-05,5.97550965,-3.24057962,-1,-0.9960490514003435
4.83831333e+03,5.19999843,-1.78579560e-10,3.61801737,1.64425622,-1.34509847,6.38455367e-01,5.25064677e-05,5.98117063,-3.22354001,-1,-0.9958466314499923
5.05558894e+03,5.19999839,-1.72746981e-10,3.61881731,1.63839338,-1.34509847,6.38455367e-01,5.25064684e-05,5.98689607,-3.20630585,-1,-0.9956348598417765
5.28231885e+03,5.19999835,-1.67036269e-10,3.61960129,1.63247264,-1.34509847,6.38455367e-01,5.25064694e-05,5.99268111,-3.18889486,-1,-0.9954138734288452
5.51888903e+03,5.19999831,-1.61425803e-10,3.62039111,1.62649530,-1.34509847,6.38455367e-01,5.25064706e-05,5.99852340,-3.17131505,-1,-0.995183296018548
5.76646074e+03,5.19999827,-1.56004783e-10,3.62121767,1.62045618,-1.34509847,6.38455367e-01,5.25064722e-05,6.00442824,-3.15354992,-1,-0.9949419957677954
6.02465297e+03,5.19999823,-1.50696641e-10,3.62201501,1.61436464,-1.34509847,6.38455367e-01,5.25064743e-05,6.01038624,-3.13563069,-1,-0.9946903440348837
6.29450728e+03,5.19999819,-1.45522574e-10,3.62287195,1.60821527,-1.34509847,6.38455367e-01,5.25064769e-05,6.01640153,-3.11754125,-1,-0.9944273256444961
6.57627983e+03,5.19999815,-1.40520707e-10,3.62369792,1.60201472,-1.34509847,6.38455367e-01,5.25064804e-05,6.02246875,-3.09929778,-1,-0.9941526909256494
6.87042930e+03,5.19999811,-1.35618945e-10,3.62452202,1.59576465,-1.34509847,6.38455367e-01,5.25064849e-05,6.02858548,-3.08090453,-1,-0.9938659928175748
7.17784448e+03,5.19999807,-1.30876014e-10,3.62537544,1.58946299,-1.34509847,6.38455367e-01,5.25064908e-05,6.03475448,-3.06235848,-1,-0.9935663650450025
7.49870194e+03,5.19999803,-1.26204521e-10,3.62621786,1.58311624,-1.34509847,6.38455367e-01,5.25064985e-05,6.04096979,-3.04367252,-1,-0.9932536355107844
7.83399078e+03,5.19999799,-1.21743458e-10,3.62710014,1.57671947,-1.34509847,6.38455367e-01,5.25065085e-05,6.04723589,-3.02483934,-1,-0.9929268401706924
8.18405252e+03,5.19999795,-1.17375860e-10,3.62795887,1.57027894,-1.34509847,6.38455367e-01,5.25065219e-05,6.05354676,-3.00587522,-1,-0.9925856461560736
8.54950050e+03,5.19999791,-1.13138806e-10,3.62882555,1.56379480,-1.34509847,6.38455367e-01,5.25065404e-05,6.05990189,-2.98678522,-1,-0.9922294556639892
8.93136790e+03,5.19999787,-1.09006358e-10,3.62966744,1.55727098,-1.34509847,6.38455367e-01,5.25065669e-05,6.06629757,-2.96757609,-1,-0.991857261686841
9.32994027e+03,5.19999782,-1.05029201e-10,3.63056957,1.55070388,-1.34509847,6.38455367e-01,5.25066049e-05,6.07273716,-2.94823651,-1,-0.9914687859081499
9.74647441e+03,5.19999778,-1.01133122e-10,3.63145476,1.54409917,-1.34509847,6.38455367e-01,5.25066586e-05,6.07921636,-2.92878349,-1,-0.991062803365035
1.01813709e+04,5.19999774,-9.74219839e-11,3.63234381,1.53745587,-1.34509847,6.38455367e-01,5.25067296e-05,6.08573643,-2.90920913,-1,-0.9906389236249449
1.06350781e+04,5.19999770,-9.37746092e-11,3.63319716,1.53078124,-1.34509847,6.38455367e-01,5.25068292e-05,6.09228982,-2.88954320,-1,-0.9901967096856853
1.11095624e+04,5.19999765,-9.02683507e-11,3.63409766,1.52406909,-1.34509847,6.38455367e-01,5.25069800e-05,6.09886839,-2.86975147,-1,-0.9897342449696309
1.16048252e+04,5.19999761,-8.68680706e-11,3.63498200,1.51732725,-1.34510571,6.38456411e-01,5.25111715e-05,6.10542958,-2.84981481,-1,-0.9892515281122465
1.21218629e+04,5.19999756,-8.35586241e-11,3.63589343,1.51055589,-1.34511086,6.38457152e-01,5.25142924e-05,6.11197535,-2.82973049,-1,-0.9887475879542267
1.26620267e+04,5.19999752,-8.04132327e-11,3.63680519,1.50375627,-1.34512340,6.38458960e-01,5.25146795e-05,6.11851146,-2.80949769,-1,-0.988221107524021
1.32261955e+04,5.19999748,-7.73523633e-11,3.63769516,1.49693420,-1.34513470,6.38460590e-01,5.25157274e-05,6.12503763,-2.78913656,-1,-0.9876712301858273
1.38149847e+04,5.19999743,-7.43821159e-11,3.63855579,1.49009455,-1.34514243,6.38461705e-01,5.25183482e-05,6.13155439,-2.76866551,-1,-0.9870973561288904
1.44299033e+04,5.19999739,-7.15181358e-11,3.63946269,1.48323456,-1.34514321,6.38461815e-01,5.25240089e-05,6.13806964,-2.74808328,-1,-0.9864980145790317
1.50724730e+04,5.19999734,-6.87859760e-11,3.64038236,1.47635664,-1.34514114,6.38461514e-01,5.25317131e-05,6.14459020,-2.72740710,-1,-0.9858717223837882
1.57435281e+04,5.19999730,-6.61161972e-11,3.64126556,1.46947187,-1.34513828,6.38461099e-01,5.25412413e-05,6.15111032,-2.70667055,-1,-0.985217666377555
1.64442277e+04,5.19999725,-6.35676714e-11,3.64215129,1.46258126,-1.34513290,6.38460319e-01,5.25540726e-05,6.15763464,-2.68589214,-1,-0.9845347168225257
1.71760256e+04,5.19999721,-6.11203560e-11,3.64305722,1.45568859,-1.34512819,6.38459636e-01,5.25693315e-05,6.16416549,-2.66509196,-1,-0.9838214567462014
1.79403869e+04,5.19999716,-5.87432383e-11,3.64398539,1.44879939,-1.34513652,6.38460832e-01,5.25805482e-05,6.17071902,-2.64427004,-1,-0.9830764581623337
1.87391440e+04,5.19999712,-5.65021776e-11,3.64485198,1.44192501,-1.34516074,6.38464320e-01,5.25852861e-05,6.17729171,-2.62347965,-1,-0.9822979350890774
1.95733311e+04,5.19999707,-5.43131023e-11,3.64570391,1.43507209,-1.34517771,6.38466759e-01,5.25971775e-05,6.18385487,-2.60281186,-1,-0.9814848795246726
2.04450932e+04,5.19999702,-5.22242483e-11,3.64661862,1.42824180,-1.34518280,6.38467485e-01,5.26209399e-05,6.19042682,-2.58224950,-1,-0.9806352008060227
2.13557430e+04,5.19999698,-5.02480171e-11,3.64753667,1.42144358,-1.34518227,6.38467397e-01,5.26537609e-05,6.19699103,-2.56183925,-1,-0.9797476194862995
2.23070652e+04,5.19999693,-4.83518061e-11,3.64837648,1.41469575,-1.34517424,6.38466225e-01,5.27004701e-05,6.20355493,-2.54155197,-1,-0.9788203960753263
2.33019625e+04,5.19999688,-4.65341753e-11,3.64924824,1.40800344,-1.34516644,6.38465085e-01,5.27574161e-05,6.21001985,-2.52151616,-1,-0.9778507014039796
2.43410311e+04,5.19999684,-4.47996022e-11,3.65008275,1.40138042,-1.34515843,6.38463909e-01,5.28291094e-05,6.21640762,-2.50157757,-1,-0.9768379543751315
2.54264058e+04,5.19999679,-4.31379545e-11,3.65089708,1.39483934,-1.34515359,6.38463187e-01,5.29148222e-05,6.22260783,-2.48183151,-1,-0.9757800742673006
2.65627385e+04,5.19999674,-4.15840257e-11,3.65176590,1.38838733,-1.34515084,6.38462760e-01,5.30231047e-05,6.22858713,-2.46212263,-1,-0.9746725270219043
2.77493094e+04,5.19999669,-4.00928570e-11,3.65254830,1.38204302,-1.34514947,6.38462522e-01,5.31636139e-05,6.23428505,-2.44239968,-1,-0.9735160142050485
2.89894787e+04,5.19999665,-3.86750687e-11,3.65336395,1.37581298,-1.34515280,6.38462948e-01,5.33380233e-05,6.23965846,-2.42258597,-1,-0.9723072607369488
3.02872403e+04,5.19999660,-3.73549675e-11,3.65413201,1.36972060,-1.34515791,6.38463613e-01,5.35595389e-05,6.24464210,-2.40270821,-1,-0.9710423738906396
3.16424463e+04,5.19999655,-3.61077741e-11,3.65490545,1.36377187,-1.34515962,6.38463773e-01,5.38470601e-05,6.24923014,-2.38284816,-1,-0.9697214978195343
3.30619276e+04,5.19999650,-3.49231992e-11,3.65564825,1.35799547,-1.34515996,6.38463713e-01,5.42109145e-05,6.25352308,-2.36292140,-1,-0.9683379746632381
3.45442019e+04,5.19999645,-3.38137462e-11,3.65634312,1.35239141,-1.34516176,6.38463843e-01,5.46393288e-05,6.25754626,-2.34309474,-1,-0.966893249172291
3.60960913e+04,5.19999640,-3.27759976e-11,3.65707412,1.34696537,-1.34518932,6.38467667e-01,5.50491489e-05,6.26133690,-2.32349675,-1,-0.9653806720633777
3.77192663e+04,5.19999634,-3.18099054e-11,3.65774282,1.34171054,-1.34521491,6.38471163e-01,5.55378440e-05,6.26496600,-2.30418908,-1,-0.9637986151534198
3.94159060e+04,5.19999629,-3.08905210e-11,3.65839415,1.33660593,-1.34522231,6.38472016e-01,5.61716326e-05,6.26849405,-2.28516685,-1,-0.9621449545431382
4.11897012e+04,5.19999624,-3.00169634e-11,3.65905962,1.33161486,-1.34522640,6.38472378e-01,5.68846252e-05,6.27200693,-2.26633778,-1,-0.9604160929274713
4.30432228e+04,5.19999618,-2.91928340e-11,3.65968699,1.32668118,-1.34522893,6.38472495e-01,5.76625192e-05,6.27561404,-2.24753056,-1,-0.9586095245321743
4.49818795e+04,5.19999613,-2.83800558e-11,3.66032094,1.32173414,-1.34523035,6.38472451e-01,5.84845290e-05,6.27944506,-2.22847873,-1,-0.956719977669839
4.70065078e+04,5.19999607,-2.75843104e-11,3.66099842,1.31669326,-1.34522936,6.38472052e-01,5.93246682e-05,6.28362275,-2.20889869,-1,-0.954746637030591
4.91190579e+04,5.19999601,-2.67785172e-11,3.66169227,1.31149236,-1.34525040,6.38474817e-01,6.00824549e-05,6.28831529,-2.18837855,-1,-0.9526876018166817
5.13221227e+04,5.19999596,-2.59735943e-11,3.66242301,1.30607247,-1.34532772,6.38485683e-01,6.06426412e-05,6.29347362,-2.16694983,-1,-0.9505403448111678
5.36194274e+04,5.19999590,-2.51548821e-11,3.66323914,1.30040377,-1.34534705,6.38488234e-01,6.12912496e-05,6.29925447,-2.14422812,-1,-0.9483012351804048
5.60167904e+04,5.19999584,-2.43297437e-11,3.66404142,1.29448989,-1.34533854,6.38486768e-01,6.19098206e-05,6.30544666,-2.12059508,-1,-0.9459646019154596
5.85157970e+04,5.19999578,-2.34993628e-11,3.66492900,1.28836082,-1.34532784,6.38485117e-01,6.24322138e-05,6.31205881,-2.09599421,-1,-0.943528899874977
6.11210450e+04,5.19999572,-2.26831792e-11,3.66581576,1.28204849,-1.34531278,6.38482815e-01,6.28773047e-05,6.31900948,-2.07053820,-1,-0.9409896477299193
6.38413265e+04,5.19999566,-2.18784983e-11,3.66676453,1.27558209,-1.34530258,6.38481263e-01,6.32499634e-05,6.32623095,-2.04432832,-1,-0.9383382761007939
6.66786271e+04,5.19999560,-2.10851101e-11,3.66772234,1.26900206,-1.34529784,6.38480513e-01,6.35708026e-05,6.33365697,-2.01750636,-1,-0.935572849686601
6.96387819e+04,5.19999554,-2.03152623e-11,3.66868281,1.26233614,-1.34529249,6.38479583e-01,6.38622962e-05,6.34124848,-1.99016040,-1,-0.93268768120145
7.27286081e+04,5.19999548,-1.95696365e-11,3.66968409,1.25560600,-1.34529153,6.38479552e-01,6.41272764e-05,6.34897883,-1.96236245,-1,-0.9296761261378992
7.59536914e+04,5.19999541,-1.88490914e-11,3.67070449,1.24883218,-1.34539823,6.38494497e-01,6.43425337e-05,6.35682904,-1.93417139,-1,-0.926532740292285
7.93202194e+04,5.19999535,-1.81548862e-11,3.67174190,1.24203401,-1.34541346,6.38496757e-01,6.45755050e-05,6.36478539,-1.90563209,-1,-0.9232514928082081
8.28368085e+04,5.19999529,-1.74857740e-11,3.67278468,1.23522709,-1.34540114,6.38494838e-01,6.48088036e-05,6.37283855,-1.87676497,-1,-0.9198239855553625
8.65087652e+04,5.19999523,-1.68413502e-11,3.67385368,1.22842496,-1.34539514,6.38493285e-01,6.50298941e-05,6.38098178,-1.84759672,-1,-0.916245046457421
9.03420330e+04,5.19999517,-1.62291263e-11,3.67490711,1.22164053,-1.34539836,6.38494578e-01,6.52348084e-05,6.38921271,-1.81815079,-1,-0.9125088825744699
9.43453169e+04,5.19999510,-1.56426318e-11,3.67600741,1.21488362,-1.34548983,6.38507308e-01,6.54224278e-05,6.39753560,-1.78843083,-1,-0.908607009420609
9.85255375e+04,5.19999504,-1.50798280e-11,3.67711854,1.20816668,-1.34550474,6.38507297e-01,6.56174853e-05,6.40594814,-1.75845478,-1,-0.9045326817077141
1.02894479e+05,5.19999497,-1.45509934e-11,3.67822281,1.20150175,-1.34551424,6.38510586e-01,6.57965292e-05,6.41444952,-1.72821556,-1,-0.9002744137518394
1.07456964e+05,5.19999491,-1.40414076e-11,3.67933463,1.19490443,-1.34552085,6.38507366e-01,6.59758739e-05,6.42303278,-1.69771651,-1,-0.8958275051185564
1.12221934e+05,5.19999484,-1.35604586e-11,3.68046215,1.18838462,-1.34551857,6.38504946e-01,6.61441773e-05,6.43169572,-1.66695282,-1,-0.8911832408129565
1.17200557e+05,5.19999478,-1.31103809e-11,3.68165042,1.18194948,-1.34564607,6.38518140e-01,6.62965339e-05,6.44044709,-1.63590295,-1,-0.8863307357415838
1.22404281e+05,5.19999471,-1.26794815e-11,3.68281488,1.17562392,-1.34567627,6.38515849e-01,6.64437384e-05,6.44928837,-1.60456678,-1,-0.8812588319039115
1.27840233e+05,5.19999464,-1.22811377e-11,3.68402194,1.16941239,-1.34567018,6.38513770e-01,6.65789504e-05,6.45822255,-1.57293524,-1,-0.8759605828403174
1.33518596e+05,5.19999457,-1.19043062e-11,3.68524054,1.16333855,-1.34559884,6.38502647e-01,6.67074493e-05,6.46724928,-1.54099613,-1,-0.8704260635054341
1.39454700e+05,5.19999451,-1.15561913e-11,3.68649505,1.15742084,-1.34579146,6.38516949e-01,6.68130603e-05,6.47637460,-1.50871922,-1,-0.8646403322371304
1.45658709e+05,5.19999444,-1.12306916e-11,3.68774933,1.15168373,-1.34580464,6.38517243e-01,6.69105566e-05,6.48559481,-1.47608930,-1,-0.8585934825087334
1.52140466e+05,5.19999436,-1.09327756e-11,3.68905670,1.14614937,-1.34571204,6.38505820e-01,6.69990048e-05,6.49491133,-1.44307880,-1,-0.852275920662033
1.58912087e+05,5.19999429,-1.06657788e-11,3.69040051,1.14084004,-1.34562613,6.38492173e-01,6.70757703e-05,6.50433449,-1.40965019,-1,-0.8456758376182048
1.65992528e+05,5.19999422,-1.04247518e-11,3.69178368,1.13579715,-1.34593405,6.38513371e-01,6.71312429e-05,6.51386830,-1.37575857,-1,-0.8387747575685495
1.73389151e+05,5.19999414,-1.02143266e-11,3.69323082,1.13105060,-1.34597869,6.38516505e-01,6.71789662e-05,6.52351688,-1.34138018,-1,-0.8315655050064391
