star_age,star_mass,star_mdot,log_L,log_Teff,log_R,log_surf_z,v_wind_Km_per_s,log_center_T,log_center_Rho,phase,x
2.75359965e+02,1.49999884e+01,-3.61207861e-08,3.79890938,3.58677734,2.24857717,-1.34509909,2.29597797e-03,5.78564066,-4.51780950,-1,-1.0
2.85723298e+02,1.49999880e+01,-3.57274265e-08,3.79644066,3.58701399,2.24686951,-1.34509909,2.29275158e-03,5.78724280,-4.51233456,-1,-0.9998649356661826
2.96389604e+02,1.49999876e+01,-3.53294293e-08,3.79392072,3.58725559,2.24512633,-1.34509910,2.28944960e-03,5.78887689,-4.50673301,-1,-0.9997259227140577
3.07389988e+02,1.49999872e+01,-3.49264208e-08,3.79134487,3.58750265,2.24334429,-1.34509910,2.28606476e-03,5.79054591,-4.50099280,-1,-0.9995825557551175
3.18867978e+02,1.49999868e+01,-3.45166879e-08,3.78869145,3.58775744,2.24150799,-1.34509911,2.28256360e-03,5.79226349,-4.49505841,-1,-0.9994329642025819
3.30801151e+02,1.49999864e+01,-3.41014659e-08,3.78596628,3.58801939,2.23962152,-1.34509911,2.27898452e-03,5.79402627,-4.48894219,-1,-0.9992774402932785
3.43134328e+02,1.49999860e+01,-3.36816496e-08,3.78317941,3.58828741,2.23769203,-1.34509912,2.27533017e-03,5.79582779,-4.48266900,-1,-0.9991167031698687
3.55894570e+02,1.49999856e+01,-3.32570474e-08,3.78032776,3.58856177,2.23571750,-1.34509913,2.27158143e-03,5.79766987,-4.47623089,-1,-0.9989504001489121
3.69108759e+02,1.49999852e+01,-3.28274146e-08,3.77740854,3.58884267,2.23369609,-1.34509914,2.26770723e-03,5.79955422,-4.46962088,-1,-0.9987781808798581
3.82912460e+02,1.49999847e+01,-3.23921276e-08,3.77440683,3.58913235,2.23161587,-1.34509914,2.26371197e-03,5.80149191,-4.46278787,-1,-0.9985982785569492
3.97208837e+02,1.49999843e+01,-3.19530402e-08,3.77133575,3.58942852,2.22948799,-1.34509915,2.25963179e-03,5.80347273,-4.45577574,-1,-0.9984119552345674
4.12019073e+02,1.49999838e+01,-3.15099809e-08,3.76819558,3.58973157,2.22731181,-1.34509916,2.25544652e-03,5.80549737,-4.44857856,-1,-0.9982189348366879
4.27368123e+02,1.49999833e+01,-3.10631438e-08,3.76498540,3.59004176,2.22508634,-1.34509917,2.25114934e-03,5.80756715,-4.44118975,-1,-0.9980188921271677
4.43280613e+02,1.49999828e+01,-3.06128775e-08,3.76170376,3.59035913,2.22281076,-1.34509918,2.24674967e-03,5.80968317,-4.43360561,-1,-0.9978115061576898
4.59780779e+02,1.49999823e+01,-3.01594311e-08,3.75834973,3.59068374,2.22048454,-1.34509919,2.24224409e-03,5.81184619,-4.42582163,-1,-0.9975964610627703
4.76892646e+02,1.49999818e+01,-2.97029930e-08,3.75492309,3.59101568,2.21810733,-1.34509920,2.23761296e-03,5.81405686,-4.41783046,-1,-0.9973734437268681
4.94640149e+02,1.49999813e+01,-2.92438837e-08,3.75142330,3.59135493,2.21567894,-1.34509922,2.23286196e-03,5.81631562,-4.40962878,-1,-0.9971421422074035
5.13047141e+02,1.49999808e+01,-2.87824782e-08,3.74785151,3.59170180,2.21319931,-1.34509923,2.22799711e-03,5.81862284,-4.40121551,-1,-0.996902245630495
5.32137333e+02,1.49999802e+01,-2.83193031e-08,3.74420822,3.59205640,2.21066846,-1.34509924,2.22303177e-03,5.82097934,-4.39258744,-1,-0.9966534449729337
5.51934274e+02,1.49999797e+01,-2.78545542e-08,3.74049211,3.59241832,2.20808658,-1.34509926,2.21793912e-03,5.82338520,-4.38374017,-1,-0.9963954333228413
5.72461844e+02,1.49999791e+01,-2.73882754e-08,3.73670550,3.59278793,2.20545403,-1.34509927,2.21270518e-03,5.82584037,-4.37467152,-1,-0.9961278994544477
5.93743856e+02,1.49999785e+01,-2.69213949e-08,3.73284884,3.59316523,2.20277112,-1.34509929,2.20738209e-03,5.82834527,-4.36537807,-1,-0.9958505330151879
6.15804042e+02,1.49999780e+01,-2.64543397e-08,3.72892268,3.59355006,2.20003836,-1.34509931,2.20195356e-03,5.83090044,-4.35585984,-1,-0.9955630247081617
6.38666469e+02,1.49999774e+01,-2.59873270e-08,3.72492924,3.59394265,2.19725648,-1.34509933,2.19642642e-03,5.83350586,-4.34611266,-1,-0.9952650608704461
6.62355416e+02,1.49999768e+01,-2.55208638e-08,3.72086852,3.59434269,2.19442603,-1.34509934,2.19081557e-03,5.83616174,-4.33613588,-1,-0.9949563250761422
6.86977808e+02,1.49999761e+01,-2.50549231e-08,3.71673948,3.59475170,2.19154348,-1.34509936,2.18507903e-03,5.83887320,-4.32590383,-1,-0.9946354237818895
7.12520754e+02,1.49999755e+01,-2.45903290e-08,3.71254272,3.59516825,2.18861201,-1.34509938,2.17923913e-03,5.84163778,-4.31542702,-1,-0.9943025249948656
7.38977526e+02,1.49999749e+01,-2.41270727e-08,3.70828511,3.59559268,2.18563435,-1.34509945,2.17329423e-03,5.84445377,-4.30471319,-1,-0.9939577164004549
7.66373456e+02,1.49999742e+01,-2.36658412e-08,3.70396843,3.59602488,2.18261161,-1.34509951,2.16727783e-03,5.84732141,-4.29376116,-1,-0.9936006678491097
7.94769288e+02,1.49999736e+01,-2.32070912e-08,3.69959147,3.59646476,2.17954336,-1.34509953,2.16117129e-03,5.85024303,-4.28256107,-1,-0.9932305876700522
8.24303907e+02,1.49999729e+01,-2.27511466e-08,3.69515239,3.59691355,2.17642624,-1.34509954,2.15497240e-03,5.85322397,-4.27108580,-1,-0.9928456657882806
8.54869416e+02,1.49999722e+01,-2.22984701e-08,3.69066012,3.59736975,2.17326772,-1.34509955,2.14870917e-03,5.85625749,-4.25936815,-1,-0.9924473084151386
8.86492941e+02,1.49999715e+01,-2.18490941e-08,3.68611691,3.59783331,2.17006899,-1.34509957,2.14237486e-03,5.85934403,-4.24740763,-1,-0.992035162020047
9.19406389e+02,1.49999708e+01,-2.14038585e-08,3.68151783,3.59830572,2.16682463,-1.34509959,2.13594215e-03,5.86249267,-4.23515848,-1,-0.9916062041811207
9.53469450e+02,1.49999701e+01,-2.09627118e-08,3.67687315,3.59878567,2.16354238,-1.34509962,2.12944798e-03,5.86569675,-4.22265806,-1,-0.9911622635452512
9.88727773e+02,1.49999694e+01,-2.05259784e-08,3.67218532,3.59927313,2.16022355,-1.34509964,2.12290262e-03,5.86895634,-4.20990359,-1,-0.9907027451733611
1.02540388e+03,1.49999686e+01,-2.00945462e-08,3.66744982,3.59976868,2.15686471,-1.34509967,2.11626121e-03,5.87228041,-4.19685492,-1,-0.9902247489573781
1.06331124e+03,1.49999679e+01,-1.96680043e-08,3.66267825,3.60027116,2.15347396,-1.34509970,2.10958126e-03,5.87565963,-4.18355691,-1,-0.989730705938093
1.10270012e+03,1.49999671e+01,-1.92473787e-08,3.65787004,3.60078196,2.15004825,-1.34509973,2.10284134e-03,5.87910343,-4.16996913,-1,-0.9892173544094859
1.14347991e+03,1.49999663e+01,-1.88324307e-08,3.65302864,3.60129933,2.14659281,-1.34509977,2.09605785e-03,5.88260711,-4.15611415,-1,-0.9886858752830732
1.18577863e+03,1.49999656e+01,-1.84237173e-08,3.64815779,3.60182378,2.14310848,-1.34509980,2.08923156e-03,5.88617376,-4.14197722,-1,-0.9881346000863648
1.22962558e+03,1.49999648e+01,-1.80216814e-08,3.64326283,3.60235528,2.13959801,-1.34509984,2.08240357e-03,5.88980401,-4.12756014,-1,-0.987563146955246
1.27507976e+03,1.49999640e+01,-1.76263592e-08,3.63834798,3.60289356,2.13606401,-1.34509988,2.07555114e-03,5.89349881,-4.11285770,-1,-0.9869707469483258
1.32220017e+03,1.49999632e+01,-1.72380682e-08,3.63341725,3.60343842,2.13250894,-1.34509992,2.06869199e-03,5.89725981,-4.09786762,-1,-0.9863566311242126
1.37106728e+03,1.49999623e+01,-1.68571454e-08,3.62847604,3.60398966,2.12893584,-1.34510006,2.06184580e-03,5.90108892,-4.08258596,-1,-0.9857197507250464
1.42168064e+03,1.49999615e+01,-1.64837034e-08,3.62353033,3.60454713,2.12534806,-1.34510031,2.05503181e-03,5.90498548,-4.06701391,-1,-0.9850601116156342
1.47423237e+03,1.49999606e+01,-1.61182083e-08,3.61858526,3.60511081,2.12174817,-1.34510029,2.04824108e-03,5.90895544,-4.05113386,-1,-0.9843752099142797
1.52857219e+03,1.49999598e+01,-1.57601100e-08,3.61364846,3.60568035,2.11814067,-1.34510027,2.04149477e-03,5.91299259,-4.03497487,-1,-0.9836670042059368
1.58509797e+03,1.49999589e+01,-1.54112405e-08,3.60872725,3.60625622,2.11452835,-1.34510028,2.03484687e-03,5.91711080,-4.01848150,-1,-0.9829303090887183
1.64356323e+03,1.49999580e+01,-1.50705525e-08,3.60382693,3.60683740,2.11091581,-1.34510031,2.02832931e-03,5.92130016,-4.00170377,-1,-0.9821683369130327
1.70422133e+03,1.49999571e+01,-1.47390688e-08,3.59895811,3.60742456,2.10730709,-1.34510035,2.02197128e-03,5.92556943,-3.98460780,-1,-0.9813777856620858
1.76713539e+03,1.49999562e+01,-1.44167145e-08,3.59412956,3.60801743,2.10370708,-1.34510039,2.01577318e-03,5.92992034,-3.96719552,-1,-0.9805578326989175
1.83223343e+03,1.49999553e+01,-1.41031804e-08,3.58934669,3.60861544,2.10011963,-1.34510045,2.00975871e-03,5.93434995,-3.94948353,-1,-0.9797094161320253
1.89990347e+03,1.49999543e+01,-1.37999853e-08,3.58462632,3.60921908,2.09655216,-1.34510051,2.00399105e-03,5.93887244,-3.93142407,-1,-0.9788274789336358
1.96997478e+03,1.49999534e+01,-1.35062753e-08,3.57997498,3.60982816,2.09300832,-1.34510057,1.99849520e-03,5.94345851,-3.91309813,-1,-0.9779142462116086
2.04253970e+03,1.49999524e+01,-1.32223553e-08,3.57540066,3.61044179,2.08949391,-1.34510063,1.99328084e-03,5.94816028,-3.89440800,-1,-0.9769685145075019
2.11795784e+03,1.49999515e+01,-1.29494912e-08,3.57092761,3.61106093,2.08601910,-1.34510070,1.98842464e-03,5.95296442,-3.87536006,-1,-0.9759855970583715
2.19602588e+03,1.49999505e+01,-1.26868894e-08,3.56655885,3.61168481,2.08258695,-1.34510077,1.98396223e-03,5.95786430,-3.85598605,-1,-0.9749681437144491
2.27693911e+03,1.49999495e+01,-1.24352592e-08,3.56231149,3.61231313,2.07920664,-1.34510084,1.97993609e-03,5.96286817,-3.83626865,-1,-0.9739136092797295
2.36098003e+03,1.49999484e+01,-1.21954571e-08,3.55821299,3.61294666,2.07589034,-1.34510092,1.97641925e-03,5.96798691,-3.81618597,-1,-0.972818311958568
2.44797750e+03,1.49999474e+01,-1.19669195e-08,3.55426758,3.61358466,2.07264162,-1.34510146,1.97343977e-03,5.97321484,-3.79576170,-1,-0.9716844822023157
2.53821155e+03,1.49999463e+01,-1.17506710e-08,3.55050251,3.61422701,2.06947439,-1.34510135,1.97108427e-03,5.97856369,-3.77496762,-1,-0.9705084704066032
2.63187250e+03,1.49999452e+01,-1.15475000e-08,3.54694666,3.61487377,2.06640294,-1.34510135,1.96944813e-03,5.98404199,-3.75379002,-1,-0.9692877961489625
2.72881342e+03,1.49999441e+01,-1.13569598e-08,3.54360863,3.61552485,2.06343177,-1.34510141,1.96855287e-03,5.98964507,-3.73224835,-1,-0.9680243743541164
2.82948817e+03,1.49999430e+01,-1.11809096e-08,3.54053781,3.61618007,2.06058592,-1.34510149,1.96855362e-03,5.99539006,-3.71030087,-1,-0.9667122899078301
2.93384451e+03,1.49999418e+01,-1.10194628e-08,3.53775412,3.61683936,2.05787548,-1.34510157,1.96952738e-03,6.00127667,-3.68795385,-1,-0.9653522236490575
3.04188193e+03,1.49999407e+01,-1.08728573e-08,3.53528050,3.61750259,2.05531221,-1.34510167,1.97152866e-03,6.00730668,-3.66521415,-1,-0.9639441822245801
3.15420258e+03,1.49999395e+01,-1.07441746e-08,3.53320137,3.61817006,2.05293772,-1.34510177,1.97483723e-03,6.01350617,-3.64201470,-1,-0.9624803178706903
3.27033024e+03,1.49999382e+01,-1.06319632e-08,3.53150162,3.61884086,2.05074624,-1.34510188,1.97939303e-03,6.01985911,-3.61840878,-1,-0.9609668371173771
3.39104248e+03,1.49999369e+01,-1.05403692e-08,3.53030160,3.61951585,2.04879625,-1.34510199,1.98555654e-03,6.02639884,-3.59431767,-1,-0.9593936059687486
3.51585587e+03,1.49999356e+01,-1.04683288e-08,3.52958889,3.62019382,2.04708395,-1.34510211,1.99327569e-03,6.03310939,-3.56979055,-1,-0.9577669249220386
3.64553463e+03,1.49999343e+01,-1.04207973e-08,3.52951218,3.62087551,2.04568223,-1.34510223,2.00299075e-03,6.04002723,-3.54474454,-1,-0.9560768339706363
3.77943818e+03,1.49999329e+01,-1.03962492e-08,3.53004451,3.62155992,2.04457957,-1.34510234,2.01458899e-03,6.04713080,-3.51924208,-1,-0.9543316817327859
3.91870668e+03,1.49999314e+01,-1.04042046e-08,3.53143911,3.62224829,2.04390014,-1.34510246,2.02892567e-03,6.05447833,-3.49315544,-1,-0.9525166086115949
4.06244697e+03,1.49999299e+01,-1.04433091e-08,3.53363705,3.62293908,2.04361753,-1.34510255,2.04599139e-03,6.06203523,-3.46657852,-1,-0.9506432550764365
4.21134459e+03,1.49999284e+01,-1.05242240e-08,3.53687780,3.62363189,2.04385227,-1.34510261,2.06683505e-03,6.06984209,-3.43942754,-1,-0.9487026865496605
4.36513337e+03,1.49999267e+01,-1.06528117e-08,3.54123856,3.62432492,2.04464659,-1.34510262,2.09211327e-03,6.07789663,-3.41172111,-1,-0.9466983719995737
4.52389088e+03,1.49999250e+01,-1.08431031e-08,3.54693651,3.62502052,2.04610436,-1.34510257,2.12348606e-03,6.08621834,-3.38343058,-1,-0.9446293004637403
4.68727850e+03,1.49999232e+01,-1.11067904e-08,3.55409581,3.62571681,2.04829144,-1.34510244,2.16226948e-03,6.09480090,-3.35458945,-1,-0.94249988514443
4.85528617e+03,1.49999213e+01,-1.14648725e-08,3.56302985,3.62641116,2.05136976,-1.34510224,2.21029956e-03,6.10366083,-3.32518878,-1,-0.9403102571526664
5.02737894e+03,1.49999193e+01,-1.19381404e-08,3.57400214,3.62710582,2.05546658,-1.34510202,2.26919653e-03,6.11279328,-3.29527945,-1,-0.9380673884409454
5.20274091e+03,1.49999171e+01,-1.25455679e-08,3.58715205,3.62779995,2.06065327,-1.34510177,2.34016221e-03,6.12217878,-3.26494431,-1,-0.9357819125564051
5.38047885e+03,1.49999148e+01,-1.33154023e-08,3.60269366,3.62849943,2.06702512,-1.34510152,2.42504788e-03,6.13179642,-3.23428475,-1,-0.933465470880722
5.55951393e+03,1.49999123e+01,-1.42781601e-08,3.62073641,3.62921497,2.07461542,-1.34510127,2.52573586e-03,6.14161502,-3.20343115,-1,-0.9311321237027292
5.73888886e+03,1.49999096e+01,-1.54651536e-08,3.64121235,3.62996167,2.08335998,-1.34510103,2.64415764e-03,6.15161115,-3.17248154,-1,-0.9287943472919937
5.91819294e+03,1.49999067e+01,-1.69000905e-08,3.66383019,3.63074685,2.09309856,-1.34510079,2.78092545e-03,6.16178992,-3.14144291,-1,-0.926457494262573
6.09761842e+03,1.49999035e+01,-1.85957957e-08,3.68815042,3.63158635,2.10357965,-1.34510057,2.93557500e-03,6.17217912,-3.11024726,-1,-0.9241190590384929
6.27808969e+03,1.49998999e+01,-2.05590848e-08,3.71363429,3.63251170,2.11447089,-1.34510037,3.10819177e-03,6.18284936,-3.07870264,-1,-0.921766994132759
6.46135339e+03,1.49998959e+01,-2.27795637e-08,3.73966264,3.63352209,2.12546429,-1.34510019,3.29651570e-03,6.19391497,-3.04649440,-1,-0.9193785357522923
6.64864550e+03,1.49998913e+01,-2.52404981e-08,3.76580647,3.63468467,2.13621105,-1.34510004,3.50042817e-03,6.20545195,-3.01342786,-1,-0.9169375754872493
6.84165584e+03,1.49998861e+01,-2.79138163e-08,3.79158466,3.63606118,2.14634712,-1.34509987,3.71977291e-03,6.21756732,-2.97925236,-1,-0.9144220900742094
7.04123255e+03,1.49998802e+01,-3.07520201e-08,3.81667131,3.63774248,2.15552785,-1.34509973,3.95446069e-03,6.23030553,-2.94389472,-1,-0.9118210257851798
7.21675157e+03,1.49998745e+01,-3.39991690e-08,3.84543662,3.64109887,2.16319772,-1.34509957,4.25441250e-03,6.24170928,-2.91277296,-1,-0.909533503082919
7.39250139e+03,1.49998682e+01,-3.72399225e-08,3.86983812,3.64651864,2.16455893,-1.34509946,4.65666492e-03,6.25335171,-2.88155959,-1,-0.907242972386199
7.57615478e+03,1.49998611e+01,-3.93353252e-08,3.88819020,3.65309100,2.16059026,-1.34509940,5.00428633e-03,6.26563575,-2.84916870,-1,-0.9048494352130075
7.75887387e+03,1.49998537e+01,-4.06556089e-08,3.90254137,3.66049966,2.15294852,-1.34509936,5.31198959e-03,6.27788528,-2.81740486,-1,-0.9024680746828986
7.94051974e+03,1.49998463e+01,-4.13616775e-08,3.91379718,3.66845096,2.14267382,-1.34509936,5.58572470e-03,6.29001878,-2.78647551,-1,-0.9001007013270258
8.12362703e+03,1.49998387e+01,-4.15721896e-08,3.92250281,3.67670284,2.13052288,-1.34509937,5.83691114e-03,6.30212881,-2.75612312,-1,-0.8977142814232204
8.31036712e+03,1.49998309e+01,-4.13627347e-08,3.92894767,3.68510944,2.11693211,-1.34509939,6.08376290e-03,6.31426526,-2.72617152,-1,-0.8952805155823605
8.50220039e+03,1.49998231e+01,-4.07908069e-08,3.93332645,3.69358028,2.10217983,-1.34509940,6.35357509e-03,6.32640716,-2.69651517,-1,-0.8927803708107347
8.70031655e+03,1.49998151e+01,-3.99109690e-08,3.93580972,3.70204837,2.08648527,-1.34509938,6.68176346e-03,6.33848005,-2.66703247,-1,-0.8901983417310104
8.90566126e+03,1.49998070e+01,-3.87827412e-08,3.93659633,3.71046213,2.07005106,-1.34509943,7.09886025e-03,6.35036746,-2.63752562,-1,-0.8875221036463051
9.11891144e+03,1.49997989e+01,-3.74743656e-08,3.93593655,3.71878478,2.05307587,-1.34509963,7.61212315e-03,6.36195563,-2.60772620,-1,-0.8847428343226093
9.34053716e+03,1.49997907e+01,-3.60523419e-08,3.93413478,3.72699371,2.03575713,-1.34509968,8.22577082e-03,6.37319950,-2.57735222,-1,-0.8818544073822989
9.57083944e+03,1.49997826e+01,-3.45812384e-08,3.93152096,3.73508099,2.01827565,-1.34509973,8.95893906e-03,6.38416674,-2.54623855,-1,-0.8788528996603302
9.80998660e+03,1.49997746e+01,-3.31154627e-08,3.92840766,3.74305013,2.00078072,-1.34509976,9.86333170e-03,6.39501564,-2.51437693,-1,-0.875736117458144
1.00581431e+04,1.49997665e+01,-3.16893644e-08,3.92504660,3.75091020,1.98338004,-1.34509982,1.10010974e-02,6.40589881,-2.48185339,-1,-0.8725019173841945
1.03154124e+04,1.49997586e+01,-3.03289752e-08,3.92163195,3.75867270,1.96614773,-1.34509984,1.24324271e-02,6.41689615,-2.44875850,-1,-0.8691489510541368
1.05818477e+04,1.49997507e+01,-2.90488602e-08,3.91832544,3.76634974,1.94914038,-1.34510026,1.42027500e-02,6.42802544,-2.41513246,-1,-0.8656765251174285
1.08574690e+04,1.49997429e+01,-2.78600929e-08,3.91529161,3.77395472,1.93241351,-1.34510097,1.63716782e-02,6.43927878,-2.38100080,-1,-0.8620843789159707
1.11421702e+04,1.49997351e+01,-2.67733423e-08,3.91271152,3.78150419,1.91602454,-1.34510222,1.90266836e-02,6.45064024,-2.34639994,-1,-0.8583738952409772
1.14356048e+04,1.49997274e+01,-2.57979527e-08,3.91078133,3.78901933,1.90002915,-1.34510331,2.22818333e-02,6.46209229,-2.31137897,-1,-0.8545495899940087
1.17371916e+04,1.49997198e+01,-2.49416110e-08,3.90968504,3.79652390,1.88447187,-1.34510425,2.62775704e-02,6.47361378,-2.27600329,-1,-0.8506190378994143
1.20460724e+04,1.49997122e+01,-2.42074397e-08,3.90956165,3.80404459,1.86936879,-1.34510850,3.09704428e-02,6.48517773,-2.24036068,-1,-0.8465934237962109
1.23614855e+04,1.49997047e+01,-2.35885068e-08,3.91046161,3.81159929,1.85470938,-1.34511031,3.65382116e-02,6.49676311,-2.20451733,-1,-0.8424826748480889
1.26828373e+04,1.49996972e+01,-2.30727677e-08,3.91232249,3.81919774,1.84044291,-1.34510897,4.35006733e-02,6.50835739,-2.16851164,-1,-0.8382945273874187
1.30097635e+04,1.49996898e+01,-2.26394079e-08,3.91498375,3.82684528,1.82647846,-1.34510958,5.23215168e-02,6.51995537,-2.13235880,-1,-0.8340337293014688
1.33422595e+04,1.49996823e+01,-2.22655340e-08,3.91821791,3.83454208,1.81270195,-1.34510923,6.35900188e-02,6.53155814,-2.09604509,-1,-0.8297003405416018
1.36807030e+04,1.49996748e+01,-2.19245714e-08,3.92176857,3.84228291,1.79899562,-1.34509914,7.80359672e-02,6.54317553,-2.05953156,-1,-0.8252894385796232
1.40257076e+04,1.49996673e+01,-2.15956079e-08,3.92539363,3.85005839,1.78525719,-1.34509916,9.66366528e-02,6.55482509,-2.02275356,-1,-0.8207930264250638
1.43781260e+04,1.49996598e+01,-2.12607622e-08,3.92889202,3.85785683,1.77140950,-1.34509923,1.20825011e-01,6.56652345,-1.98563926,-1,-0.8161999909198839
1.47387302e+04,1.49996522e+01,-2.09089481e-08,3.93211990,3.86566611,1.75740488,-1.34509929,1.52255947e-01,6.57828445,-1.94813888,-1,-0.8115002706614723
1.51082926e+04,1.49996445e+01,-2.05339421e-08,3.93499460,3.87347464,1.74322517,-1.34509940,1.92844206e-01,6.59011904,-1.91020578,-1,-0.806683799034056
1.54874985e+04,1.49996368e+01,-2.01356213e-08,3.93749531,3.88127161,1.72888158,-1.34509947,2.45098479e-01,6.60203843,-1.87180306,-1,-0.8017416445878814
1.58769675e+04,1.49996291e+01,-1.97184819e-08,3.93965682,3.88904813,1.71440931,-1.34509950,3.12560811e-01,6.61404640,-1.83291843,-1,-0.7966657321350501
1.62770798e+04,1.49996213e+01,-1.92903259e-08,3.94156398,3.89680107,1.69985699,-1.34509965,3.94793586e-01,6.62614338,-1.79355420,-1,-0.7914511065651049
1.66879846e+04,1.49996135e+01,-1.88616679e-08,3.94334619,3.90452905,1.68529215,-1.34509969,4.91003430e-01,6.63832936,-1.75372014,-1,-0.7860958233686293
1.71098983e+04,1.49996056e+01,-1.84447751e-08,3.94516739,3.91223400,1.67079284,-1.34509962,5.98754820e-01,6.65060300,-1.71342879,-1,-0.7805970622249947
1.75425343e+04,1.49995978e+01,-1.80522428e-08,3.94721332,3.91992148,1.65644085,-1.34509984,7.14739973e-01,6.66295920,-1.67270791,-1,-0.7749585583647565
1.79855055e+04,1.49995899e+01,-1.76966002e-08,3.94968406,3.92760020,1.64231878,-1.34510019,8.35477307e-01,6.67539184,-1.63159850,-1,-0.7691853568254153
1.84381534e+04,1.49995819e+01,-1.73894803e-08,3.95278020,3.93528111,1.62850504,-1.34510108,9.57455566e-01,6.68789244,-1.59015724,-1,-0.7632860397748722
