star_age,star_mass,star_mdot,log_L,log_Teff,log_R,log_surf_z,v_wind_Km_per_s,log_center_T,log_center_Rho,phase,x
1.04978376e+02,5.99989245e+01,-1.47817093e-05,5.52759998,3.82909755,2.62828205,-1.34509851,3.66634654,6.39532219,-3.27927433,-1,-1.0
1.08310720e+02,5.99988714e+01,-1.49922690e-05,5.53110568,3.82938664,2.62945671,-1.34509851,3.73753076,6.39711516,-3.27407840,-1,-0.9997633165938078
1.11643064e+02,5.99988182e+01,-1.52028287e-05,5.53461138,3.82967573,2.63063138,-1.34509851,3.80871499,6.39890812,-3.26888246,-1,-0.9995266331876155
1.14975408e+02,5.99987651e+01,-1.54133883e-05,5.53811708,3.82996482,2.63180605,-1.34509851,3.87989922,6.40070108,-3.26368652,-1,-0.9992899497814233
1.18307752e+02,5.99987119e+01,-1.56239480e-05,5.54162278,3.83025391,2.63298072,-1.34509851,3.95108345,6.40249405,-3.25849058,-1,-0.9990532663752311
1.21640096e+02,5.99986588e+01,-1.58345077e-05,5.54512849,3.83054300,2.63415539,-1.34509850,4.02226768,6.40428701,-3.25329464,-1,-0.9988165829690389
1.25237512e+02,5.99985993e+01,-1.60463748e-05,5.54860717,3.83096087,2.63505900,-1.34509850,4.11644536,6.40622311,-3.24769475,-1,-0.9985610725318299
1.29156086e+02,5.99985320e+01,-1.62598258e-05,5.55205311,3.83153475,2.63563421,-1.34509850,4.23848152,6.40833264,-3.24160544,-1,-0.9982827514936249
1.33074660e+02,5.99984648e+01,-1.64732768e-05,5.55549904,3.83210863,2.63620941,-1.34509850,4.36051769,6.41044217,-3.23551612,-1,-0.9980044304554199
1.36993234e+02,5.99983976e+01,-1.66867278e-05,5.55894498,3.83268252,2.63678461,-1.34509850,4.48255385,6.41255170,-3.22942681,-1,-0.9977261094172148
1.40911808e+02,5.99983303e+01,-1.69001788e-05,5.56239092,3.83325640,2.63735982,-1.34509850,4.60459001,6.41466123,-3.22333750,-1,-0.9974477883790097
1.44830382e+02,5.99982631e+01,-1.71136298e-05,5.56583686,3.83383028,2.63793502,-1.34509850,4.72662617,6.41677076,-3.21724818,-1,-0.9971694673408047
1.49294774e+02,5.99981822e+01,-1.73208814e-05,5.56916619,3.83474622,2.63776781,-1.34509850,4.93280666,6.41915963,-3.21037530,-1,-0.9968523789774373
1.53903621e+02,5.99980976e+01,-1.75264924e-05,5.57246464,3.83575268,2.63740412,-1.34509850,5.16125645,6.42162244,-3.20329503,-1,-0.9965250305384469
1.58512467e+02,5.99980131e+01,-1.77321033e-05,5.57576310,3.83675914,2.63704043,-1.34509850,5.38970623,6.42408524,-3.19621477,-1,-0.9961976821704827
1.63121313e+02,5.99979285e+01,-1.79377143e-05,5.57906156,3.83776560,2.63667673,-1.34509850,5.61815602,6.42654805,-3.18913450,-1,-0.9958703338025184
1.67730160e+02,5.99978439e+01,-1.81433252e-05,5.58236002,3.83877206,2.63631304,-1.34509850,5.84660580,6.42901085,-3.18205424,-1,-0.995542985363528
1.72348758e+02,5.99977591e+01,-1.83495316e-05,5.58565727,3.83978565,2.63593448,-1.34509850,6.07802872,6.43147840,-3.17496068,-1,-0.9952149443490131
1.77629682e+02,5.99976568e+01,-1.85961820e-05,5.58887258,3.84128349,2.63454647,-1.34509850,6.51138040,6.43426811,-3.16696419,-1,-0.9948398609001968
1.82910606e+02,5.99975544e+01,-1.88428323e-05,5.59208788,3.84278132,2.63315845,-1.34509850,6.94473208,6.43705782,-3.15896771,-1,-0.9944647774513805
1.88191531e+02,5.99974520e+01,-1.90894826e-05,5.59530319,3.84427916,2.63177043,-1.34509849,7.37808376,6.43984753,-3.15097122,-1,-0.9940896939315381
1.93472455e+02,5.99973496e+01,-1.93361329e-05,5.59851849,3.84577699,2.63038241,-1.34509849,7.81143544,6.44263724,-3.14297474,-1,-0.9937146104827218
1.99192259e+02,5.99972359e+01,-1.95267421e-05,5.60152141,3.84765446,2.62812893,-1.34509849,8.45130534,6.44562302,-3.13443059,-1,-0.9933083550980821
2.05024863e+02,5.99971193e+01,-1.97029478e-05,5.60446974,3.84962951,2.62565300,-1.34509849,9.14425392,6.44865919,-3.12574568,-1,-0.9928940879690911
2.10857466e+02,5.99970027e+01,-1.98791536e-05,5.60741807,3.85160456,2.62317708,-1.34509849,9.83720250,6.45169537,-3.11706078,-1,-0.9924798209111262
2.16837521e+02,5.99968824e+01,-2.00310054e-05,5.61027740,3.85379837,2.62021911,-1.34509849,1.06887661e+01,6.45479007,-3.10821189,-1,-0.9920550809123094
2.23095787e+02,5.99967554e+01,-2.01369060e-05,5.61296879,3.85640497,2.61635160,-1.34509849,1.18396057e+01,6.45799519,-3.09905361,-1,-0.9916105806705166
2.29354053e+02,5.99966284e+01,-2.02428067e-05,5.61566018,3.85901157,2.61248410,-1.34509849,1.29904453e+01,6.46120030,-3.08989533,-1,-0.9911660804287237
2.35752492e+02,5.99964983e+01,-2.03096574e-05,5.61820484,3.86191863,2.60794231,-1.34509849,1.44418133e+01,6.46445160,-3.08060549,-1,-0.9907116242450784
2.42310542e+02,5.99963649e+01,-2.03320430e-05,5.62058240,3.86516781,2.60263274,-1.34509848,1.62353858e+01,6.46775547,-3.07116586,-1,-0.9902458315142022
2.48887316e+02,5.99962311e+01,-2.03446011e-05,5.62292429,3.86848133,2.59717663,-1.34509848,1.81065277e+01,6.47106323,-3.06171418,-1,-0.9897787088905845
2.55622391e+02,5.99960950e+01,-2.02740707e-05,5.62496450,3.87233888,2.59048164,-1.34509848,2.06334955e+01,6.47440389,-3.05216059,-1,-0.9893003427639301
2.62371399e+02,5.99959588e+01,-2.01889868e-05,5.62695095,3.87628581,2.58358101,-1.34509848,2.32811384e+01,6.47774334,-3.04260846,-1,-0.9888209870305908
2.69189953e+02,5.99958227e+01,-2.00312579e-05,5.62866908,3.88067888,2.57565394,-1.34509848,2.65311423e+01,6.48107676,-3.03306362,-1,-0.9883366917159337
2.75995339e+02,5.99956881e+01,-1.98354953e-05,5.63032569,3.88536044,2.56711911,-1.34509848,3.01553117e+01,6.48438079,-3.02359346,-1,-0.987853331672993
2.82739871e+02,5.99955559e+01,-1.96029429e-05,5.63211221,3.89039709,2.55793908,-1.34509848,3.41924589e+01,6.48763256,-3.01426330,-1,-0.9873742938524882
2.89173139e+02,5.99954318e+01,-1.93404572e-05,5.63503480,3.89613616,2.54792224,-1.34509848,3.88433380e+01,6.49071212,-3.00541577,-1,-0.9869173639007223
2.95288826e+02,5.99953150e+01,-1.91184216e-05,5.63837149,3.90239650,2.53706990,-1.34509848,4.39066055e+01,6.49362562,-2.99703417,-1,-0.9864829904895841
3.01231298e+02,5.99952028e+01,-1.88934110e-05,5.64136060,3.90896541,2.52542663,-1.34509848,4.90402228e+01,6.49644362,-2.98891749,-1,-0.9860609198647741
3.07300882e+02,5.99950897e+01,-1.86019709e-05,5.64274609,3.91555586,2.51293849,-1.34509848,5.38396625e+01,6.49930124,-2.98067185,-1,-0.9856298209700352
3.13914500e+02,5.99949692e+01,-1.81454520e-05,5.64115591,3.92171651,2.49982209,-1.34509848,5.77280818e+01,6.50237756,-2.97177190,-1,-0.9851600814607006
3.21500517e+02,5.99948357e+01,-1.75880676e-05,5.63604487,3.92678859,2.48712240,-1.34509848,6.04363307e+01,6.50582420,-2.96175201,-1,-0.9846212762404135
3.29678358e+02,5.99946970e+01,-1.69665642e-05,5.63051164,3.93122401,2.47548495,-1.34509848,6.22330272e+01,6.50945403,-2.95114434,-1,-0.9840404360680968
3.38241264e+02,5.99945569e+01,-1.63890007e-05,5.62550694,3.93540359,2.46462344,-1.34509848,6.37014764e+01,6.51316779,-2.94023251,-1,-0.9834322462296575
3.47062778e+02,5.99944172e+01,-1.58721518e-05,5.62106320,3.93953679,2.45413517,-1.34509849,6.50908362e+01,6.51691431,-2.92916536,-1,-0.9828056884729276
3.56099353e+02,5.99942787e+01,-1.54097421e-05,5.61708207,3.94373085,2.44375649,-1.34509849,6.64646015e+01,6.52066966,-2.91800782,-1,-0.9821638557715884
3.65355579e+02,5.99941418e+01,-1.49853326e-05,5.61338291,3.94804613,2.43327635,-1.34509849,6.77758296e+01,6.52442367,-2.90678107,-1,-0.9815064221158298
3.74715102e+02,5.99940062e+01,-1.45364086e-05,5.60978220,3.95242943,2.42270940,-1.34509849,6.88490720e+01,6.52817884,-2.89551752,-1,-0.9808416516767711
3.84247278e+02,5.99938731e+01,-1.39948529e-05,5.60630443,3.95693984,2.41194968,-1.34509850,6.92703398e+01,6.53193811,-2.88418730,-1,-0.9801646183680539
3.93924677e+02,5.99937432e+01,-1.35143530e-05,5.60295680,3.96163977,2.40087600,-1.34509850,6.97540193e+01,6.53568444,-2.87284201,-1,-0.9794772704356672
4.03768333e+02,5.99936150e+01,-1.30579825e-05,5.59953839,3.96641059,2.38962516,-1.34509850,7.01729551e+01,6.53944031,-2.86142807,-1,-0.978778113916573
4.13831135e+02,5.99934882e+01,-1.26169058e-05,5.59595928,3.97119842,2.37825995,-1.34509850,7.04760441e+01,6.54322225,-2.84989468,-1,-0.9780633923112411
4.24154756e+02,5.99933625e+01,-1.21888309e-05,5.59222716,3.97596503,2.36686067,-1.34509851,7.06510042e+01,6.54704354,-2.83820368,-1,-0.9773301457489061
4.34768885e+02,5.99932375e+01,-1.18131502e-05,5.58843580,3.98070613,2.35548280,-1.34509851,7.09355238e+01,6.55090752,-2.82634623,-1,-0.9765762655356136
4.45669005e+02,5.99931130e+01,-1.14753933e-05,5.58464242,3.98541380,2.34417076,-1.34509852,7.12789009e+01,6.55481469,-2.81432659,-1,-0.9758020724962683
4.56823390e+02,5.99929887e+01,-1.11399727e-05,5.58084978,3.99008031,2.33294143,-1.34509853,7.15026758e+01,6.55876343,-2.80215624,-1,-0.975009820004995
4.68411188e+02,5.99928652e+01,-1.07060689e-05,5.57698746,3.99463688,2.32189712,-1.34509853,7.08821873e+01,6.56280000,-2.78968665,-1,-0.9741867838776002
4.80355059e+02,5.99927422e+01,-1.03249949e-05,5.57314095,3.99911856,2.31101050,-1.34509853,7.04348278e+01,6.56690412,-2.77698865,-1,-0.9733384572728436
4.92670464e+02,5.99926195e+01,-1.00235020e-05,5.56940875,4.00355460,2.30027232,-1.34509854,7.03724943e+01,6.57106899,-2.76407891,-1,-0.9724637420561563
5.05341429e+02,5.99925035e+01,-9.38624392e-06,5.56577164,4.00794488,2.28967321,-1.34509855,6.76920250e+01,6.57529190,-2.75096855,-1,-0.9715637727984978
5.18297308e+02,5.99923944e+01,-8.46355480e-06,5.56218563,4.01229218,2.27918562,-1.34509856,6.27509920e+01,6.57956400,-2.73769023,-1,-0.9706435672098987
5.31705839e+02,5.99922968e+01,-7.35228230e-06,5.55860185,4.01655089,2.26887629,-1.34509856,5.59663576e+01,6.58392398,-2.72411748,-1,-0.969691211513994
5.45562762e+02,5.99922093e+01,-6.42891501e-06,5.55508130,4.02074015,2.25873750,-1.34509857,5.01639947e+01,6.58836539,-2.71027561,-1,-0.9687070082819796
5.59838364e+02,5.99921303e+01,-5.71052492e-06,5.55168957,4.02489458,2.24873278,-1.34509858,4.56273450e+01,6.59287230,-2.69620806,-1,-0.9676930679124366
5.74496935e+02,5.99920584e+01,-5.06482849e-06,5.54839219,4.02901500,2.23884324,-1.34509860,4.14167270e+01,6.59743857,-2.68193819,-1,-0.9666519267474816
5.89456105e+02,5.99919922e+01,-4.44611557e-06,5.54516159,4.03310764,2.22904267,-1.34509861,3.72417302e+01,6.60205148,-2.66751013,-1,-0.9655894352071698
6.05031068e+02,5.99919380e+01,-3.69303134e-06,5.54195831,4.03711700,2.21942232,-1.34509861,3.15885149e+01,6.60677515,-2.65271330,-1,-0.9644832062901798
6.21015727e+02,5.99918910e+01,-3.03183548e-06,5.53881746,4.04108199,2.20992189,-1.34509861,2.64980138e+01,6.61156858,-2.63768354,-1,-0.963347878263139
6.37467665e+02,5.99918497e+01,-2.56927598e-06,5.53578516,4.04501065,2.20054843,-1.34509862,2.29507538e+01,6.61643536,-2.62240676,-1,-0.9621793612299925
6.54292424e+02,5.99918110e+01,-2.29854498e-06,5.53285377,4.04891640,2.19127124,-1.34509863,2.09899797e+01,6.62135760,-2.60694221,-1,-0.9609843641743213
6.71778296e+02,5.99917711e+01,-2.28787740e-06,5.53007275,4.05277480,2.18216393,-1.34509864,2.13312766e+01,6.62637814,-2.59114705,-1,-0.959742410839011
6.89634027e+02,5.99917305e+01,-2.27635449e-06,5.52734058,4.05659989,2.17314766,-1.34509864,2.16646337e+01,6.63146133,-2.57514596,-1,-0.9584741878604913
7.07968248e+02,5.99916890e+01,-2.26417494e-06,5.52467872,4.06038305,2.16425041,-1.34509864,2.19914587e+01,6.63662502,-2.55888017,-1,-0.9571719796022319
7.26915988e+02,5.99916464e+01,-2.25376751e-06,5.52214843,4.06411919,2.15551299,-1.34509863,2.23316373e+01,6.64188865,-2.54228471,-1,-0.9558261954806511
7.46493824e+02,5.99916024e+01,-2.24614378e-06,5.51982618,4.06782517,2.14693990,-1.34509864,2.26927758e+01,6.64724435,-2.52538505,-1,-0.9544356580960495
7.66524334e+02,5.99915576e+01,-2.23986186e-06,5.51765002,4.07150739,2.13848738,-1.34509866,2.30617985e+01,6.65266648,-2.50826761,-1,-0.9530129690415678
7.87106600e+02,5.99915116e+01,-2.23495975e-06,5.51565061,4.07515982,2.13018282,-1.34509867,2.34376437e+01,6.65816968,-2.49088503,-1,-0.9515510909089276
8.08332714e+02,5.99914643e+01,-2.23132730e-06,5.51381791,4.07877712,2.12203187,-1.34509867,2.38190938e+01,6.66377852,-2.47316076,-1,-0.9500434827623063
8.30061724e+02,5.99914159e+01,-2.22900824e-06,5.51213251,4.08236950,2.11400441,-1.34509866,2.42081727e+01,6.66946891,-2.45517405,-1,-0.9485001558728899
8.52413244e+02,5.99913660e+01,-2.22880985e-06,5.51065573,4.08593491,2.10613520,-1.34509866,2.46116960e+01,6.67525876,-2.43686931,-1,-0.9469126145244656
8.75605938e+02,5.99913143e+01,-2.23107428e-06,5.50954465,4.08947304,2.09850339,-1.34509868,2.50288389e+01,6.68117353,-2.41816550,-1,-0.9452653278653769
8.99281750e+02,5.99912613e+01,-2.23499363e-06,5.50865063,4.09299613,2.09101021,-1.34509870,2.54570390e+01,6.68716126,-2.39923198,-1,-0.9435837272177466
9.23624458e+02,5.99912067e+01,-2.24124995e-06,5.50805774,4.09649858,2.08370886,-1.34509872,2.59012091e+01,6.69324997,-2.37998128,-1,-0.9418547595465269
9.48640913e+02,5.99911502e+01,-2.25284816e-06,5.50773262,4.09998854,2.07656639,-1.34509872,2.64013567e+01,6.69945035,-2.36038146,-1,-0.9400779382518902
9.74192550e+02,5.99910922e+01,-2.26825332e-06,5.50762794,4.10346956,2.06955201,-1.34509872,2.69408670e+01,6.70573904,-2.34050573,-1,-0.9382631050657163
1.00062211e+03,5.99910316e+01,-2.28730726e-06,5.50793084,4.10694177,2.06275904,-1.34509872,2.75145896e+01,6.71217036,-2.32018578,-1,-0.9363859164306407
1.02782113e+03,5.99909686e+01,-2.30719649e-06,5.50865445,4.11040534,2.05619371,-1.34509874,2.80852197e+01,6.71872276,-2.29949753,-1,-0.9344540760508088
1.05545818e+03,5.99909042e+01,-2.32813684e-06,5.50961911,4.11386489,2.04975693,-1.34509878,2.86608922e+01,6.72534456,-2.27859887,-1,-0.9324911241073405
1.08420725e+03,5.99908359e+01,-2.35482397e-06,5.51120398,4.11731909,2.04364096,-1.34509882,2.92857446e+01,6.73214509,-2.25716188,-1,-0.9304491897174758
1.11328014e+03,5.99907663e+01,-2.38707305e-06,5.51294801,4.12078094,2.03758927,-1.34509884,2.99766374e+01,6.73900130,-2.23555769,-1,-0.9283842556551305
1.14324695e+03,5.99906930e+01,-2.43467589e-06,5.51513142,4.12426392,2.03171501,-1.34509883,3.08498353e+01,6.74601120,-2.21349194,-1,-0.9262558299393233
1.17399031e+03,5.99906160e+01,-2.48631535e-06,5.51772486,4.12776717,2.02600524,-1.34509883,3.17648559e+01,6.75315441,-2.19103373,-1,-0.9240722489036938
1.20533964e+03,5.99905361e+01,-2.54181360e-06,5.52064200,4.13128756,2.02042304,-1.34509883,3.27218121e+01,6.76040184,-2.16827025,-1,-0.9218456281807899
1.23741708e+03,5.99904525e+01,-2.60283350e-06,5.52395272,4.13483017,2.01499317,-1.34509884,3.37407691e+01,6.76777477,-2.14514119,-1,-0.919567292642464
1.27041550e+03,5.99903636e+01,-2.67236818e-06,5.52775934,4.13840552,2.00974579,-1.34509885,3.48607138e+01,6.77530859,-2.12155046,-1,-0.9172235434843452
1.30416275e+03,5.99902704e+01,-2.74071308e-06,5.53197498,4.14199207,2.00468051,-1.34509889,3.59539142e+01,6.78297302,-2.09759102,-1,-0.9148266078499626
1.33844832e+03,5.99901739e+01,-2.80889760e-06,5.53648038,4.14558694,1.99974346,-1.34509895,3.70374558e+01,6.79073152,-2.07336758,-1,-0.9123914374441335
1.37389684e+03,5.99900696e+01,-2.88702059e-06,5.54157393,4.14921090,1.99504231,-1.34509900,3.82400782e+01,6.79869475,-2.04857859,-1,-0.9098736672325126
1.40970874e+03,5.99899621e+01,-2.98179172e-06,5.54682166,4.15287054,1.99034690,-1.34509902,3.96696480e+01,6.80672325,-2.02360934,-1,-0.9073300875557998
1.44627918e+03,5.99898478e+01,-3.11131610e-06,5.55239125,4.15660464,1.98566349,-1.34509899,4.15729744e+01,6.81488798,-1.99826380,-1,-0.9047326317393689
1.48370055e+03,5.99897251e+01,-3.24519531e-06,5.55831921,4.16041774,1.98100128,-1.34509897,4.35523800e+01,6.82320394,-1.97250978,-1,-0.9020747376816185
1.52175980e+03,5.99895955e+01,-3.38499647e-06,5.56450770,4.16428811,1.97635479,-1.34509896,4.56257668e+01,6.83163337,-1.94645238,-1,-0.8993715374936662
1.56050171e+03,5.99894582e+01,-3.53285481e-06,5.57096455,4.16821916,1.97172111,-1.34509895,4.78243853e+01,6.84018373,-1.92007523,-1,-0.8966198506266462
1.59994164e+03,5.99893124e+01,-3.69067115e-06,5.57768043,4.17221288,1.96709161,-1.34509895,5.01770591e+01,6.84885673,-1.89337789,-1,-0.8938185861196255
1.64010169e+03,5.99891573e+01,-3.85786454e-06,5.58464245,4.17626757,1.96246324,-1.34509895,5.26789577e+01,6.85765524,-1.86635463,-1,-0.890966174295741
1.68125241e+03,5.99889907e+01,-4.01089260e-06,5.59189492,4.18033094,1.95796272,-1.34509901,5.49953875e+01,6.86662924,-1.83886963,-1,-0.8880433990429871
1.72337860e+03,5.99888118e+01,-4.17549079e-06,5.59937076,4.18439311,1.95357632,-1.34509907,5.74761497e+01,6.87577367,-1.81093871,-1,-0.8850513399581204
1.76603880e+03,5.99886251e+01,-4.36281196e-06,5.60695777,4.18847821,1.94919961,-1.34509909,6.02833827e+01,6.88500981,-1.78277050,-1,-0.8820213522243083
1.80949609e+03,5.99884231e+01,-4.62806413e-06,5.61468089,4.19266098,1.94469563,-1.34509895,6.42130776e+01,6.89437856,-1.75426644,-1,-0.8789347502945304
1.85374386e+03,5.99882051e+01,-4.89255404e-06,5.62253621,4.19693445,1.94007636,-1.34509889,6.81830563e+01,6.90387328,-1.72545211,-1,-0.8757920036513235
1.89862488e+03,5.99879726e+01,-5.16347223e-06,5.63048633,4.20129988,1.93532055,-1.34509886,7.22922197e+01,6.91346341,-1.69641376,-1,-0.8726042797287688
1.94377770e+03,5.99877263e+01,-5.44346927e-06,5.63845542,4.20586904,1.93016679,-1.34509884,7.66318275e+01,6.92306762,-1.66740124,-1,-0.8693972509115804
1.98896975e+03,5.99874667e+01,-5.73625082e-06,5.64637731,4.21069066,1.92448448,-1.34509883,8.12955461e+01,6.93263386,-1.63857108,-1,-0.8661874357403946
2.03445072e+03,5.99871913e+01,-6.04795661e-06,5.65426436,4.21568142,1.91844650,-1.34509882,8.63555162e+01,6.94221274,-1.60976876,-1,-0.8629570997077021
2.08031195e+03,5.99868987e+01,-6.38017080e-06,5.66211438,4.22080661,1.91212112,-1.34509881,9.18413592e+01,6.95182063,-1.58094471,-1,-0.859699755289309
2.12640449e+03,5.99865885e+01,-6.73162977e-06,5.66988832,4.22609171,1.90543789,-1.34509872,9.77746248e+01,6.96142275,-1.55220021,-1,-0.8564259818231686
2.17274214e+03,5.99862597e+01,-7.10394170e-06,5.67757133,4.23152375,1.89841532,-1.34509861,1.04200748e+02,6.97101958,-1.52353227,-1,-0.8531347991490679
2.21937871e+03,5.99859108e+01,-7.49735621e-06,5.68515805,4.23708251,1.89109115,-1.34509856,1.11141359e+02,6.98061966,-1.49491540,-1,-0.8498223853524363
2.26632219e+03,5.99855407e+01,-7.91022439e-06,5.69263694,4.24275923,1.88347716,-1.34509854,1.18597179e+02,6.99022046,-1.46635322,-1,-0.8464881729347156
2.31359890e+03,5.99851481e+01,-8.34217341e-06,5.69999926,4.24854262,1.87559154,-1.34509853,1.26585576e+02,6.99982435,-1.43783828,-1,-0.8431302924888905
2.36125716e+03,5.99847309e+01,-8.79364283e-06,5.70723489,4.25442300,1.86744861,-1.34509852,1.35145647e+02,7.00943673,-1.40935746,-1,-0.8397453120336928
2.40937886e+03,5.99842857e+01,-9.26584580e-06,5.71432834,4.26039349,1.85905434,-1.34509852,1.44341368e+02,7.01906359,-1.38089237,-1,-0.8363274152415967
2.45797897e+03,5.99838128e+01,-9.75687882e-06,5.72128588,4.26643512,1.85044985,-1.34509851,1.54138882e+02,7.02871029,-1.35242252,-1,-0.832875538851849
2.50710479e+03,5.99833108e+01,-1.02665025e-05,5.72810295,4.27253847,1.84165168,-1.34509851,1.64554989e+02,7.03838248,-1.32392802,-1,-0.829386323329806
2.55679938e+03,5.99827778e+01,-1.07944586e-05,5.73477461,4.27869589,1.83267268,-1.34509851,1.75605129e+02,7.04808338,-1.29539716,-1,-0.8258567102914982
2.60776337e+03,5.99822046e+01,-1.12664570e-05,5.74133628,4.28482091,1.82370348,-1.34509850,1.86016206e+02,7.05793030,-1.26649037,-1,-0.8222369367187977
2.65999228e+03,5.99815887e+01,-1.17429401e-05,5.74773854,4.29092700,1.81469243,-1.34509850,1.96798372e+02,7.06790452,-1.23726361,-1,-0.8185273208086433
2.71238393e+03,5.99809414e+01,-1.23854000e-05,5.75393717,4.29713897,1.80536780,-1.34509850,2.10796660e+02,7.07781903,-1.20824634,-1,-0.8148061461105836
2.76505528e+03,5.99802585e+01,-1.30362873e-05,5.75993409,4.30344612,1.79575195,-1.34509850,2.25424322e+02,7.08768474,-1.17941170,-1,-0.8110651054116811
2.81857097e+03,5.99795274e+01,-1.36854440e-05,5.76574611,4.30979045,1.78596931,-1.34509850,2.40522748e+02,7.09758728,-1.15050576,-1,-0.807264094533474
2.87432926e+03,5.99787308e+01,-1.43039594e-05,5.77149906,4.31599528,1.77643612,-1.34509850,2.55323430e+02,7.10777833,-1.12079304,-1,-0.8033038005180139
