star_age,star_mass,star_mdot,log_L,log_Teff,log_R,log_surf_z,v_wind_Km_per_s,log_center_T,log_center_Rho,phase,x
1.11964564e+02,6.49975548e+01,-2.67378415e-05,5.69540661,3.86932678,2.63172690,-1.34509848,2.24461644e+01,6.48783410,-3.03526834,-1,-1.0
1.15248076e+02,6.49974660e+01,-2.68296663e-05,5.69713077,3.87110938,2.62902378,-1.34509848,2.39716464e+01,6.48953420,-3.03042670,-1,-0.9997665946448969
1.18531588e+02,6.49973772e+01,-2.69214911e-05,5.69885493,3.87289198,2.62632066,-1.34509848,2.54971283e+01,6.49123430,-3.02558506,-1,-0.9995331892897938
1.21815099e+02,6.49972883e+01,-2.70133159e-05,5.70057908,3.87467458,2.62361754,-1.34509848,2.70226102e+01,6.49293440,-3.02074342,-1,-0.9992997840057749
1.25242975e+02,6.49971956e+01,-2.70534795e-05,5.70241668,3.87682100,2.62024350,-1.34509848,2.89732725e+01,6.49469835,-3.01571289,-1,-0.9990561166718259
1.28771133e+02,6.49971001e+01,-2.70577572e-05,5.70433308,3.87922015,2.61640340,-1.34509848,3.12192823e+01,6.49650665,-3.01055115,-1,-0.9988053208864444
1.32299290e+02,6.49970046e+01,-2.70620349e-05,5.70624948,3.88161930,2.61256330,-1.34509848,3.34652920e+01,6.49831495,-3.00538942,-1,-0.9985545251721469
1.35893228e+02,6.49969076e+01,-2.70411699e-05,5.70856838,3.88446005,2.60804124,-1.34509848,3.62543979e+01,6.50015179,-3.00013919,-1,-0.9982990534774772
1.39555360e+02,6.49968089e+01,-2.69942404e-05,5.71130454,3.88775861,2.60281221,-1.34509848,3.96065134e+01,6.50201821,-2.99479723,-1,-0.9980387342766049
1.43217491e+02,6.49967102e+01,-2.69473109e-05,5.71404071,3.89105716,2.59758318,-1.34509848,4.29586289e+01,6.50388463,-2.98945527,-1,-0.9977784151468168
1.46948641e+02,6.49966101e+01,-2.68949250e-05,5.71672405,3.89497820,2.59108278,-1.34509848,4.70741668e+01,6.50577802,-2.98402537,-1,-0.997513189866479
1.50687406e+02,6.49965098e+01,-2.68419371e-05,5.71940157,3.89896792,2.58444211,-1.34509848,5.12739377e+01,6.50767438,-2.97858577,-1,-0.9972474232810448
1.54438615e+02,6.49964099e+01,-2.67106047e-05,5.72207774,3.90343196,2.57685209,-1.34509848,5.57132104e+01,6.50957119,-2.97313427,-1,-0.9969807721256019
1.58191454e+02,6.49963103e+01,-2.65529300e-05,5.72473641,3.90806271,2.56891995,-1.34509848,6.02085151e+01,6.51146668,-2.96768258,-1,-0.9967140051031456
1.61937239e+02,6.49962118e+01,-2.63400441e-05,5.72728862,3.91307235,2.56017677,-1.34509848,6.47209068e+01,6.51335332,-2.96224599,-1,-0.9964477395076292
1.65673892e+02,6.49961145e+01,-2.60855453e-05,5.72964954,3.91832445,2.55085303,-1.34509848,6.91465251e+01,6.51523088,-2.95682879,-1,-0.9961821230517242
1.69405336e+02,6.49960183e+01,-2.57871182e-05,5.73173698,3.92378786,2.54096993,-1.34509848,7.34435584e+01,6.51710074,-2.95142627,-1,-0.9959168768726734
1.73137956e+02,6.49959234e+01,-2.54371590e-05,5.73342534,3.92944120,2.53050743,-1.34509848,7.75463809e+01,6.51896487,-2.94603161,-1,-0.9956515470987714
1.76883173e+02,6.49958296e+01,-2.50298983e-05,5.73459847,3.93524543,2.51948552,-1.34509848,8.13752493e+01,6.52082747,-2.94063071,-1,-0.9953853218789996
1.80656293e+02,6.49957368e+01,-2.45624217e-05,5.73516863,3.94115657,2.50794833,-1.34509848,8.48358067e+01,6.52269439,-2.93520605,-1,-0.9951171132007774
1.84474534e+02,6.49956449e+01,-2.40353959e-05,5.73508655,3.94713176,2.49595691,-1.34509848,8.78467507e+01,6.52457195,-2.92974034,-1,-0.9948456971388067
1.88354147e+02,6.49955536e+01,-2.34535534e-05,5.73434609,3.95313449,2.48358122,-1.34509848,9.03502646e+01,6.52646609,-2.92421444,-1,-0.994569918506072
1.92865912e+02,6.49954504e+01,-2.28296388e-05,5.72773297,3.95770017,2.47114329,-1.34509848,9.22905198e+01,6.52862783,-2.91788105,-1,-0.9942492039443569
1.97925125e+02,6.49953398e+01,-2.18840826e-05,5.71853215,3.96059961,2.46074401,-1.34509848,9.19906089e+01,6.53099160,-2.91092186,-1,-0.9938895745576493
2.03306357e+02,6.49952272e+01,-2.09499284e-05,5.71049916,3.96281834,2.45229005,-1.34509849,9.08722004e+01,6.53345085,-2.90364805,-1,-0.9935070547538989
2.08914175e+02,6.49951143e+01,-2.01915882e-05,5.70454709,3.96501162,2.44492745,-1.34509849,8.99504741e+01,6.53596384,-2.89618092,-1,-0.9931084282979447
2.14703043e+02,6.49950019e+01,-1.96155981e-05,5.70011049,3.96741533,2.43790175,-1.34509849,8.95490684e+01,6.53850917,-2.88858455,-1,-0.9926969320734189
2.20611596e+02,6.49948898e+01,-1.91204160e-05,5.69631484,3.96999340,2.43084777,-1.34509849,8.94072753e+01,6.54107354,-2.88090804,-1,-0.9922769281534971
2.26613129e+02,6.49947779e+01,-1.86822390e-05,5.69296469,3.97271206,2.42373538,-1.34509849,8.94549143e+01,6.54365238,-2.87317005,-1,-0.991850314837929
2.32835959e+02,6.49946659e+01,-1.82946248e-05,5.68988937,3.97560184,2.41641815,-1.34509850,8.96431208e+01,6.54627183,-2.86527456,-1,-0.9914079708337359
2.39096737e+02,6.49945539e+01,-1.79130901e-05,5.68684845,3.97851761,2.40906616,-1.34509850,8.98446379e+01,6.54889844,-2.85735191,-1,-0.990962929331737
2.45635201e+02,6.49944417e+01,-1.75512474e-05,5.68393728,3.98159117,2.40146345,-1.34509850,9.00402601e+01,6.55157929,-2.84922910,-1,-0.9904981487822069
2.52173665e+02,6.49943295e+01,-1.71894047e-05,5.68102612,3.98466474,2.39386074,-1.34509851,9.02358823e+01,6.55426014,-2.84110628,-1,-0.9900333682326768
2.59020738e+02,6.49942174e+01,-1.67216655e-05,5.67803710,3.98777590,2.38614390,-1.34509851,8.97342601e+01,6.55701512,-2.83273262,-1,-0.9895466505033121
2.65940061e+02,6.49941052e+01,-1.62531072e-05,5.67502998,3.99088845,2.37841524,-1.34509851,8.91942680e+01,6.55978742,-2.82430086,-1,-0.9890547969508087
2.73125564e+02,6.49939929e+01,-1.58239133e-05,5.67195638,3.99399298,2.37066937,-1.34509851,8.87336715e+01,6.56262351,-2.81565617,-1,-0.9885440222439371
2.80486614e+02,6.49938803e+01,-1.54516318e-05,5.66892986,3.99712888,2.36288432,-1.34509851,8.85250988e+01,6.56549651,-2.80688568,-1,-0.9880207689440614
2.87988037e+02,6.49937675e+01,-1.51248590e-05,5.66594100,4.00028987,2.35506792,-1.34509852,8.85180519e+01,6.56839902,-2.79801459,-1,-0.9874875373618125
2.95769735e+02,6.49936560e+01,-1.47063112e-05,5.66297495,4.00346912,2.34722638,-1.34509852,8.78561416e+01,6.57136140,-2.78894445,-1,-0.9869343826954081
3.03661889e+02,6.49935448e+01,-1.42515953e-05,5.66001788,4.00665557,2.33937494,-1.34509852,8.69361524e+01,6.57434736,-2.77979587,-1,-0.9863733763683723
3.11832694e+02,6.49934416e+01,-1.32481998e-05,5.65697042,4.00976607,2.33163022,-1.34509852,8.23934449e+01,6.57740256,-2.77042353,-1,-0.98579256239769
3.20173925e+02,6.49933431e+01,-1.19092266e-05,5.65386767,4.01283011,2.32395078,-1.34509852,7.56350476e+01,6.58050012,-2.76091434,-1,-0.9851996338554609
3.28863477e+02,6.49932538e+01,-1.08295286e-05,5.65082386,4.01587294,2.31634321,-1.34509853,7.00743714e+01,6.58367727,-2.75114563,-1,-0.9845819452433143
3.37713878e+02,6.49931685e+01,-9.87624555e-06,5.64785442,4.01894983,2.30870471,-1.34509853,6.51657471e+01,6.58688650,-2.74127110,-1,-0.9839528228316375
3.46791110e+02,6.49930888e+01,-9.10333306e-06,5.64500465,4.02208852,2.30100244,-1.34509853,6.12077162e+01,6.59013950,-2.73125170,-1,-0.9833075763521629
3.56128432e+02,6.49930151e+01,-8.35213265e-06,5.64218489,4.02525234,2.29326493,-1.34509854,5.71939054e+01,6.59344389,-2.72106189,-1,-0.982643841620229
3.65658496e+02,6.49929459e+01,-7.61702218e-06,5.63938738,4.02843478,2.28550129,-1.34509854,5.31387583e+01,6.59678638,-2.71074580,-1,-0.9819664060049259
3.75461253e+02,6.49928830e+01,-6.77413967e-06,5.63653807,4.03157074,2.27780471,-1.34509855,4.81185130e+01,6.60019116,-2.70022804,-1,-0.9812695862647898
3.85510434e+02,6.49928259e+01,-5.83386688e-06,5.63364193,4.03466469,2.27016873,-1.34509854,4.22261382e+01,6.60365223,-2.68952806,-1,-0.9805552497069212
3.95887231e+02,6.49927771e+01,-5.05520020e-06,5.63089511,4.03784757,2.26242956,-1.34509855,3.72207713e+01,6.60717710,-2.67862000,-1,-0.9798176248745413
4.06447929e+02,6.49927325e+01,-4.35897147e-06,5.62819686,4.04106933,2.25463693,-1.34509855,3.26935214e+01,6.61073581,-2.66760004,-1,-0.9790669276129427
4.17317502e+02,6.49926944e+01,-3.79393723e-06,5.62554922,4.04434668,2.24675840,-1.34509855,2.89519277e+01,6.61434960,-2.65639639,-1,-0.9782942742631502
4.28462529e+02,6.49926568e+01,-3.44077223e-06,5.62291168,4.04761909,2.23889481,-1.34509856,2.67681569e+01,6.61801513,-2.64502263,-1,-0.9775020405254424
4.39898687e+02,6.49926198e+01,-3.31153327e-06,5.62028482,4.05088628,2.23104700,-1.34509856,2.62308598e+01,6.62173533,-2.63346908,-1,-0.9766891120150534
4.51600118e+02,6.49925821e+01,-3.22974402e-06,5.61765389,4.05412559,2.22325292,-1.34509856,2.60611217e+01,6.62551152,-2.62173473,-1,-0.9758573268235361
4.63640614e+02,6.49925435e+01,-3.20860392e-06,5.61501775,4.05732927,2.21552750,-1.34509856,2.63611891e+01,6.62935928,-2.60976929,-1,-0.9750014395161357
4.76101084e+02,6.49925039e+01,-3.18889717e-06,5.61242963,4.06049970,2.20789256,-1.34509856,2.66720342e+01,6.63329077,-2.59753084,-1,-0.9741156987528611
4.88828901e+02,6.49924635e+01,-3.17084574e-06,5.60989502,4.06365879,2.20030708,-1.34509856,2.69956062e+01,6.63727244,-2.58512876,-1,-0.9732109538801237
5.01965448e+02,6.49924222e+01,-3.15622655e-06,5.60747013,4.06681247,2.19278727,-1.34509857,2.73457546e+01,6.64132701,-2.57248890,-1,-0.9722771548206522
5.15461914e+02,6.49923799e+01,-3.14269492e-06,5.60512729,4.06995147,2.18533786,-1.34509857,2.77021638e+01,6.64544599,-2.55963981,-1,-0.9713177712583669
5.29279230e+02,6.49923367e+01,-3.13013281e-06,5.60285761,4.07307739,2.17795118,-1.34509858,2.80641544e+01,6.64962236,-2.54660418,-1,-0.9703355803763019
5.43486818e+02,6.49922925e+01,-3.11665849e-06,5.60064495,4.07617521,2.17064921,-1.34509858,2.84131857e+01,6.65387526,-2.53332257,-1,-0.9693256473770322
5.58019888e+02,6.49922474e+01,-3.10242340e-06,5.59847984,4.07924959,2.16341789,-1.34509858,2.87514090e+01,6.65819196,-2.51983581,-1,-0.9682925777966294
5.73126856e+02,6.49922008e+01,-3.09062532e-06,5.59645019,4.08229594,2.15631036,-1.34509858,2.91033894e+01,6.66261609,-2.50600485,-1,-0.9672187132179189
5.88541679e+02,6.49921534e+01,-3.08051691e-06,5.59451742,4.08533453,2.14926680,-1.34509858,2.94666737e+01,6.66709444,-2.49199926,-1,-0.966122965056753
6.04424763e+02,6.49921046e+01,-3.07318513e-06,5.59274509,4.08836525,2.14231920,-1.34509859,2.98492716e+01,6.67165342,-2.47773348,-1,-0.964993931003839
6.20769057e+02,6.49920545e+01,-3.06758497e-06,5.59112944,4.09138259,2.13547669,-1.34509860,3.02422779e+01,6.67629240,-2.46321248,-1,-0.9638321122728647
6.37493750e+02,6.49920033e+01,-3.06341301e-06,5.58964300,4.09438889,2.12872087,-1.34509862,3.06438687e+01,6.68099735,-2.44848098,-1,-0.9626432532375833
6.54672782e+02,6.49919507e+01,-3.06112110e-06,5.58828599,4.09737999,2.12206018,-1.34509862,3.10601003e+01,6.68578765,-2.43347976,-1,-0.9614220979427993
6.72269471e+02,6.49918969e+01,-3.06055745e-06,5.58704796,4.10035710,2.11548694,-1.34509862,3.14897906e+01,6.69065641,-2.41823061,-1,-0.9601712538939019
6.90511179e+02,6.49918410e+01,-3.06317894e-06,5.58604068,4.10332010,2.10905730,-1.34509862,3.19454210e+01,6.69564299,-2.40260970,-1,-0.9588745592774587
7.09085770e+02,6.49917840e+01,-3.06722702e-06,5.58516901,4.10627822,2.10270522,-1.34509862,3.24114729e+01,6.70068875,-2.38680258,-1,-0.9575542019867744
7.28348722e+02,6.49917247e+01,-3.07381199e-06,5.58460919,4.10923084,2.09652006,-1.34509864,3.28934356e+01,6.70585381,-2.37062123,-1,-0.9561849132033337
7.47989129e+02,6.49916640e+01,-3.08238559e-06,5.58422705,4.11218031,2.09043006,-1.34509866,3.33900138e+01,6.71108519,-2.35423376,-1,-0.9547887933870504
7.68281973e+02,6.49916011e+01,-3.09439654e-06,5.58415204,4.11512432,2.08450452,-1.34509868,3.39118549e+01,6.71643124,-2.33748999,-1,-0.9533462957016845
7.88863847e+02,6.49915369e+01,-3.11011126e-06,5.58419757,4.11806961,2.07863671,-1.34509869,3.44710692e+01,6.72183141,-2.32057914,-1,-0.9518832525912416
8.10201773e+02,6.49914698e+01,-3.13551442e-06,5.58455838,4.12101821,2.07291992,-1.34509869,3.51280453e+01,6.72737314,-2.30323122,-1,-0.9503664662371204
8.32024938e+02,6.49914005e+01,-3.16386056e-06,5.58514913,4.12397301,2.06730569,-1.34509869,3.58111629e+01,6.73300483,-2.28560814,-1,-0.9488151871261266
8.54315656e+02,6.49913292e+01,-3.19504243e-06,5.58596142,4.12693378,2.06179030,-1.34509869,3.65194691e+01,6.73872320,-2.26771992,-1,-0.947230672450897
8.77496940e+02,6.49912538e+01,-3.22708220e-06,5.58725638,4.12990418,2.05649697,-1.34509872,3.72190611e+01,6.74460214,-2.24934590,-1,-0.9455828527311075
9.00808748e+02,6.49911778e+01,-3.25924771e-06,5.58862207,4.13287600,2.05123620,-1.34509875,3.79173760e+01,6.75050461,-2.23090067,-1,-0.9439257548358252
9.25317875e+02,6.49910958e+01,-3.30051371e-06,5.59062621,4.13586622,2.04625782,-1.34509878,3.86985576e+01,6.75662639,-2.21180224,-1,-0.9421835466481587
9.49834604e+02,6.49910137e+01,-3.34183749e-06,5.59263440,4.13885655,2.04128125,-1.34509881,3.94802653e+01,6.76274957,-2.19269967,-1,-0.9404407980794887
9.75348625e+02,6.49909254e+01,-3.40959219e-06,5.59510078,4.14189634,2.03643486,-1.34509880,4.05718546e+01,6.76906496,-2.17302594,-1,-0.9386271579491612
1.00111466e+03,6.49908356e+01,-3.48258308e-06,5.59768469,4.14494883,2.03162184,-1.34509879,4.17251108e+01,6.77542884,-2.15320872,-1,-0.936795603641221
1.02783846e+03,6.49907393e+01,-3.56287681e-06,5.60073037,4.14805130,2.02693973,-1.34509879,4.29674547e+01,6.78197650,-2.13285368,-1,-0.9348959675111556
1.05501721e+03,6.49906395e+01,-3.64795350e-06,5.60399751,4.15117887,2.02231817,-1.34509879,4.42694550e+01,6.78861156,-2.11224498,-1,-0.9329639916892285
1.08270868e+03,6.49905359e+01,-3.73842033e-06,5.60751420,4.15433471,2.01776484,-1.34509879,4.56386849e+01,6.79534510,-2.09135040,-1,-0.9309955696494504
1.11129306e+03,6.49904249e+01,-3.84015204e-06,5.61146402,4.15754499,2.01331919,-1.34509880,4.71512418e+01,6.80224977,-2.06996552,-1,-0.9289636759440821
1.14045457e+03,6.49903090e+01,-3.93930538e-06,5.61569432,4.16076912,2.00898608,-1.34509882,4.86286958e+01,6.80926470,-2.04826966,-1,-0.9268907574967332
1.17012073e+03,6.49901888e+01,-4.03566056e-06,5.62016993,4.16400418,2.00475376,-1.34509886,5.00684121e+01,6.81637603,-2.02630217,-1,-0.9247819664798754
1.20080970e+03,6.49900589e+01,-4.14426951e-06,5.62510163,4.16727999,2.00066799,-1.34509890,5.16584434e+01,6.82368314,-2.00378991,-1,-0.9226004699783864
1.23168533e+03,6.49899272e+01,-4.25511461e-06,5.63011655,4.17056323,1.99660897,-1.34509894,5.32759051e+01,6.83102599,-1.98117822,-1,-0.9204057049267645
1.26350469e+03,6.49897832e+01,-4.43161815e-06,5.63548710,4.17398929,1.99244211,-1.34509889,5.57557557e+01,6.83854915,-1.95806738,-1,-0.9181438557177615
1.29575009e+03,6.49896334e+01,-4.61626425e-06,5.64100739,4.17745506,1.98827074,-1.34509884,5.83522347e+01,6.84615448,-1.93472926,-1,-0.9158517218569927
1.32862323e+03,6.49894752e+01,-4.80499113e-06,5.64674437,4.18097018,1.98410897,-1.34509879,6.10201405e+01,6.85388117,-1.91105553,-1,-0.913514965690104
1.36232476e+03,6.49893046e+01,-5.00425612e-06,5.65276452,4.18456491,1.97992959,-1.34509878,6.38526372e+01,6.86176442,-1.88696030,-1,-0.9111193242010013
1.39645480e+03,6.49891254e+01,-5.21283514e-06,5.65894546,4.18828576,1.97557836,-1.34509877,6.68522277e+01,6.86972050,-1.86268191,-1,-0.9086932224825115
1.43094279e+03,6.49889373e+01,-5.43255315e-06,5.66526576,4.19217320,1.97096363,-1.34509877,7.00627517e+01,6.87773163,-1.83827720,-1,-0.9062416762257166
1.46576554e+03,6.49887397e+01,-5.66557570e-06,5.67170389,4.19623437,1.96606036,-1.34509877,7.35217310e+01,6.88579160,-1.81376659,-1,-0.9037663338699051
1.50119850e+03,6.49885293e+01,-5.91759199e-06,5.67828209,4.20037721,1.96106378,-1.34509876,7.72791513e+01,6.89395890,-1.78897803,-1,-0.9012476153114979
1.53726314e+03,6.49883044e+01,-6.18820896e-06,5.68499484,4.20461043,1.95595372,-1.34509876,8.13394925e+01,6.90223465,-1.76391471,-1,-0.8986839943757851
1.57385398e+03,6.49880661e+01,-6.47583181e-06,5.69180188,4.20892617,1.95072575,-1.34509876,8.56846086e+01,6.91059756,-1.73863657,-1,-0.896082969009129
1.61091190e+03,6.49878138e+01,-6.78095241e-06,5.69867840,4.21334704,1.94532228,-1.34509876,9.03426241e+01,6.91903180,-1.71319137,-1,-0.8934487417009964
1.64839637e+03,6.49875468e+01,-7.10482294e-06,5.70560135,4.21788534,1.93970715,-1.34509871,9.53503518e+01,6.92752624,-1.68761227,-1,-0.890784193488229
1.68632033e+03,6.49872639e+01,-7.44935302e-06,5.71255624,4.22253458,1.93388612,-1.34509860,1.00746778e+02,6.93608120,-1.66189911,-1,-0.8880884045431255
1.72473362e+03,6.49869634e+01,-7.81578272e-06,5.71953572,4.22727783,1.92788936,-1.34509856,1.06558686e+02,6.94470417,-1.63603166,-1,-0.8853578320362709
1.76364084e+03,6.49866441e+01,-8.20317028e-06,5.72652653,4.23211237,1.92171569,-1.34509855,1.12792079e+02,6.95339352,-1.61001603,-1,-0.8825921489810017
1.80305353e+03,6.49863047e+01,-8.61141795e-06,5.73351543,4.23703305,1.91536877,-1.34509853,1.19461763e+02,6.96214826,-1.58385238,-1,-0.8797905350672968
1.84298490e+03,6.49859436e+01,-9.04115753e-06,5.74048963,4.24203457,1.90885283,-1.34509853,1.26595096e+02,6.97096795,-1.55754171,-1,-0.8769520512747594
1.88345068e+03,6.49855595e+01,-9.49284699e-06,5.74743686,4.24711146,1.90217266,-1.34509852,1.34216801e+02,6.97985252,-1.53108637,-1,-0.8740755794511684
1.92446795e+03,6.49851508e+01,-9.96686265e-06,5.75434514,4.25225835,1.89533302,-1.34509852,1.42353910e+02,6.98880225,-1.50448578,-1,-0.8711599054808257
1.96605371e+03,6.49847158e+01,-1.04634864e-05,5.76120278,4.25747042,1.88833770,-1.34509851,1.51030541e+02,6.99781653,-1.47774085,-1,-0.868203820934757
2.00833464e+03,6.49842516e+01,-1.09645943e-05,5.76800656,4.26272390,1.88123263,-1.34509851,1.59986585e+02,7.00691447,-1.45079721,-1,-0.8651983208845857
2.05156368e+03,6.49837573e+01,-1.14190765e-05,5.77477823,4.26795106,1.87416415,-1.34509850,1.68409356e+02,7.01614660,-1.42350387,-1,-0.8621254253288622
2.09574959e+03,6.49832278e+01,-1.18916131e-05,5.78146264,4.27318478,1.86703891,-1.34509850,1.77301941e+02,7.02549661,-1.39591871,-1,-0.8589845115712447
2.14022854e+03,6.49826677e+01,-1.25363476e-05,5.78800965,4.27854044,1.85960109,-1.34509850,1.89108827e+02,7.03483833,-1.36839726,-1,-0.8558227673414804
2.18508536e+03,6.49820751e+01,-1.32061781e-05,5.79442988,4.28399723,1.85189763,-1.34509850,2.01653218e+02,7.04418446,-1.34090430,-1,-0.85263416257899
2.23039811e+03,6.49814475e+01,-1.38729865e-05,5.80072303,4.28953928,1.84396012,-1.34509850,2.14530759e+02,7.05354460,-1.31341086,-1,-0.8494131484622618
2.27622249e+03,6.49807828e+01,-1.45490708e-05,5.80688141,4.29515424,1.83580938,-1.34509850,2.27933756e+02,7.06292445,-1.28589862,-1,-0.8461557656093049
2.32299602e+03,6.49800729e+01,-1.52447581e-05,5.81294106,4.30076540,1.82761688,-1.34509850,2.41940979e+02,7.07240757,-1.25812044,-1,-0.8428309133233763
2.37166083e+03,6.49793009e+01,-1.58505441e-05,5.81894696,4.30622966,1.81969132,-1.34509849,2.54642436e+02,7.08215829,-1.22960114,-1,-0.8393716211815864
2.41993720e+03,6.49785009e+01,-1.64412199e-05,5.82459759,4.31194764,1.81108067,-1.34509849,2.67814429e+02,7.09170449,-1.20171787,-1,-0.835939940931008
2.46891691e+03,6.49776558e+01,-1.72306427e-05,5.83011570,4.31769087,1.80235326,-1.34509849,2.84622539e+02,7.10129974,-1.17371490,-1,-0.8324582644195789
2.51867107e+03,6.49767582e+01,-1.80786672e-05,5.83548800,4.32346729,1.79348656,-1.34509849,3.02912988e+02,7.11093922,-1.14560777,-1,-0.8289215368599858
2.56892346e+03,6.49758120e+01,-1.88936046e-05,5.84067500,4.32931884,1.78437697,-1.34509849,3.21331096e+02,7.12056164,-1.11757332,-1,-0.8253493930905317
2.62009036e+03,6.49748086e+01,-1.97097841e-05,5.84569763,4.33518399,1.77515800,-1.34509849,3.40441419e+02,7.13024062,-1.08939679,-1,-0.8217122422398501
2.67141155e+03,6.49737567e+01,-2.05178142e-05,5.85044481,4.34118403,1.76553150,-1.34509849,3.60566612e+02,7.13981114,-1.06155765,-1,-0.8180641238299701
2.72433323e+03,6.49726292e+01,-2.13100596e-05,5.85504172,4.34711048,1.75597705,-1.34509849,3.81302036e+02,7.14954263,-1.03326616,-1,-0.8143022360972463
2.77698973e+03,6.49714688e+01,-2.19932252e-05,5.85932706,4.35320960,1.74592149,-1.34509849,4.01587883e+02,7.15908245,-1.00554582,-1,-0.8105591984348335
2.83098707e+03,6.49702403e+01,-2.27572727e-05,5.86345538,4.35926214,1.73588057,-1.34509849,4.24432437e+02,7.16873350,-9.77514731e-01,-1,-0.8067208484250509
