star_age,star_mass,star_mdot,log_L,log_Teff,log_R,log_surf_z,v_wind_Km_per_s,log_center_T,log_center_Rho,phase,x
1.43168994e+03,7.49999949e-01,-3.16388574e-11,1.70436849,3.65629107,1.06227926,-2.84509875,2.93515260e-05,5.71637215,-2.28983167,-1,-1.0
1.50841739e+03,7.49999946e-01,-3.11559891e-11,1.70012873,3.65648248,1.05977656,-2.84509874,2.92679988e-05,5.71872615,-2.28280089,-1,-0.9999979287089661
1.58930379e+03,7.49999944e-01,-3.06606359e-11,1.69592125,3.65672949,1.05717880,-2.84509873,2.91902635e-05,5.72116994,-2.27550324,-1,-0.9999957451452599
1.67453177e+03,7.49999941e-01,-3.01634943e-11,1.69137210,3.65693816,1.05448688,-2.84509872,2.91073854e-05,5.72370324,-2.26793605,-1,-0.9999934443787049
1.76429607e+03,7.49999939e-01,-2.96478592e-11,1.68665742,3.65715323,1.05169939,-2.84509871,2.90125581e-05,5.72632721,-2.26009795,-1,-0.9999910211522095
1.85877450e+03,7.49999936e-01,-2.91256270e-11,1.68177413,3.65737401,1.04881620,-2.84509870,2.89165446e-05,5.72904185,-2.25198750,-1,-0.9999884706657153
1.95816143e+03,7.49999933e-01,-2.85929311e-11,1.67670896,3.65759738,1.04583687,-2.84509869,2.88142775e-05,5.73184775,-2.24360351,-1,-0.9999857876721192
2.06267894e+03,7.49999930e-01,-2.80511340e-11,1.67178381,3.65790553,1.04275801,-2.84509868,2.87253117e-05,5.73474761,-2.23493837,-1,-0.9999829661762745
2.17307326e+03,7.49999927e-01,-2.75146866e-11,1.66642684,3.65815940,1.03957177,-2.84509866,2.86326649e-05,5.73774984,-2.22596851,-1,-0.9999799860333762
2.28937913e+03,7.49999924e-01,-2.69584158e-11,1.66085634,3.65841155,1.03628223,-2.84509865,2.85212041e-05,5.74085030,-2.21670272,-1,-0.9999768463056031
2.41140026e+03,7.49999921e-01,-2.64027178e-11,1.65511869,3.65866963,1.03289723,-2.84509864,2.84130959e-05,5.74404139,-2.20716513,-1,-0.9999735522918894
2.54049863e+03,7.49999917e-01,-2.58379894e-11,1.64917283,3.65893243,1.02939871,-2.84509863,2.82974053e-05,5.74734096,-2.19730202,-1,-0.9999700672249899
2.67604419e+03,7.49999914e-01,-2.52674592e-11,1.64308043,3.65920807,1.02580123,-2.84509862,2.81784274e-05,5.75073465,-2.18715718,-1,-0.9999664081133797
2.81896993e+03,7.49999910e-01,-2.46915615e-11,1.63677277,3.65948410,1.02209533,-2.84509861,2.80526672e-05,5.75423157,-2.17670242,-1,-0.9999625497705861
2.96925302e+03,7.49999907e-01,-2.41125856e-11,1.63027550,3.65976434,1.01828622,-2.84509859,2.79231630e-05,5.75782732,-2.16595334,-1,-0.9999584928129148
3.12784548e+03,7.49999903e-01,-2.35315227e-11,1.62369962,3.66008085,1.01436527,-2.84509858,2.77974459e-05,5.76152954,-2.15488492,-1,-0.9999542115401703
3.29435485e+03,7.49999899e-01,-2.29610493e-11,1.61704793,3.66043010,1.01034091,-2.84509856,2.76893769e-05,5.76533070,-2.14352213,-1,-0.9999497165469814
3.47013206e+03,7.49999895e-01,-2.23782324e-11,1.60998778,3.66073303,1.00620497,-2.84509855,2.75514942e-05,5.76923887,-2.13183648,-1,-0.9999449713644027
3.65510244e+03,7.49999891e-01,-2.17966486e-11,1.60272149,3.66103676,1.00196438,-2.84509853,2.74106754e-05,5.77324739,-2.11985162,-1,-0.9999399780081837
3.84963618e+03,7.49999887e-01,-2.12095849e-11,1.59533058,3.66136147,9.97619496e-01,-2.84509852,2.72617700e-05,5.77735588,-2.10756454,-1,-0.9999347264848831
4.05440854e+03,7.49999883e-01,-2.06347971e-11,1.58786451,3.66172125,9.93166897e-01,-2.84509852,2.71304130e-05,5.78156824,-2.09496730,-1,-0.9999291985655627
4.27005354e+03,7.49999878e-01,-2.00583903e-11,1.58005973,3.66204879,9.88609438e-01,-2.84509851,2.69815504e-05,5.78588162,-2.08206682,-1,-0.9999233771345754
4.49727460e+03,7.49999874e-01,-1.94848826e-11,1.57206401,3.66238114,9.83946871e-01,-2.84509851,2.68284227e-05,5.79029645,-2.06885897,-1,-0.9999172432027909
4.73642390e+03,7.49999869e-01,-1.89123669e-11,1.56398082,3.66274340,9.79180763e-01,-2.84509850,2.66738692e-05,5.79481075,-2.05535562,-1,-0.9999107872629562
4.98807564e+03,7.49999865e-01,-1.83494192e-11,1.55563409,3.66309044,9.74313329e-01,-2.84509849,2.65179732e-05,5.79942229,-2.04155810,-1,-0.9999039938142916
5.25300307e+03,7.49999860e-01,-1.77865916e-11,1.54727265,3.66348520,9.69343068e-01,-2.84509849,2.63620521e-05,5.80413269,-2.02746440,-1,-0.9998968419825756
5.53173165e+03,7.49999855e-01,-1.72378532e-11,1.53862426,3.66385828,9.64272716e-01,-2.84509849,2.62077190e-05,5.80893943,-2.01308028,-1,-0.9998893175827858
5.82506714e+03,7.49999850e-01,-1.66920878e-11,1.52973571,3.66421978,9.59105440e-01,-2.84509849,2.60415893e-05,5.81383857,-1.99841451,-1,-0.9998813988630789
6.13417961e+03,7.49999845e-01,-1.61512107e-11,1.52068127,3.66458704,9.53843716e-01,-2.84509848,2.58682374e-05,5.81870920,-1.98367866,-1,-0.9998730542369042
6.45943377e+03,7.49999840e-01,-1.56151566e-11,1.51140553,3.66494665,9.48486627e-01,-2.84509848,2.56835363e-05,5.82374497,-1.96854309,-1,-0.9998642738587559
6.80177192e+03,7.49999835e-01,-1.50954099e-11,1.50226548,3.66539013,9.43029632e-01,-2.84509848,2.55285631e-05,5.82892123,-1.95304043,-1,-0.9998550322908337
7.16173530e+03,7.49999829e-01,-1.45849667e-11,1.49283546,3.66580713,9.37480624e-01,-2.84509848,2.53649328e-05,5.83419170,-1.93726115,-1,-0.9998453149221275
7.54081628e+03,7.49999824e-01,-1.40800652e-11,1.48310766,3.66619486,9.31841267e-01,-2.84509848,2.51838673e-05,5.83954949,-1.92122229,-1,-0.999835081465457
7.93978665e+03,7.49999819e-01,-1.35808116e-11,1.47318636,3.66657803,9.26114279e-01,-2.84509847,2.49906489e-05,5.84499581,-1.90491647,-1,-0.9998243110860141
8.35910473e+03,7.49999813e-01,-1.30939502e-11,1.46309195,3.66695902,9.20305094e-01,-2.84509847,2.47976854e-05,5.85052415,-1.88836453,-1,-0.99981299141125
8.80113680e+03,7.49999807e-01,-1.26163423e-11,1.45288061,3.66735350,9.14410459e-01,-2.84509847,2.46013069e-05,5.85613431,-1.87156525,-1,-0.9998010585624025
9.26581995e+03,7.49999802e-01,-1.21522384e-11,1.44259716,3.66777119,9.08433347e-01,-2.84509847,2.44124482e-05,5.86182643,-1.85451888,-1,-0.9997885142377545
9.75502785e+03,7.49999796e-01,-1.16975079e-11,1.43204313,3.66815999,9.02378747e-01,-2.84509847,2.42103279e-05,5.86759556,-1.83723946,-1,-0.9997753078567657
1.02695908e+04,7.49999790e-01,-1.12553875e-11,1.42148109,3.66858611,8.96245485e-01,-2.84509847,2.40168467e-05,5.87344221,-1.81972409,-1,-0.9997614170051249
1.08113106e+04,7.49999784e-01,-1.08228365e-11,1.41060538,3.66896971,8.90040422e-01,-2.84509847,2.38062892e-05,5.87936055,-1.80199501,-1,-0.9997467930424538
1.13809871e+04,7.49999778e-01,-1.04069767e-11,1.39995435,3.66944816,8.83758001e-01,-2.84509847,2.36271673e-05,5.88535601,-1.78403546,-1,-0.9997314143764524
1.19809688e+04,7.49999772e-01,-9.99650078e-12,1.38882097,3.66983956,8.77408515e-01,-2.84509847,2.34106211e-05,5.89141899,-1.76587541,-1,-0.9997152176083369
1.26117582e+04,7.49999766e-01,-9.59910774e-12,1.37754410,3.67022735,8.70994492e-01,-2.84509847,2.31944265e-05,5.89754661,-1.74752070,-1,-0.9996981891729007
1.32750882e+04,7.49999760e-01,-9.21145097e-12,1.36622851,3.67063799,8.64515421e-01,-2.84509847,2.29768920e-05,5.90373866,-1.72897164,-1,-0.9996802822897507
1.39740309e+04,7.49999753e-01,-8.83808671e-12,1.35479431,3.67105208,8.57970152e-01,-2.84509847,2.27632270e-05,5.90999699,-1.71021863,-1,-0.9996614140262056
1.47088391e+04,7.49999747e-01,-8.47507239e-12,1.34311414,3.67143270,8.51368822e-01,-2.84509847,2.25371816e-05,5.91631205,-1.69129438,-1,-0.9996415775578188
1.54822677e+04,7.49999741e-01,-8.12812094e-12,1.33164753,3.67189908,8.44702764e-01,-2.84509847,2.23409533e-05,5.92269112,-1.67217654,-1,-0.9996206985148613
1.62952444e+04,7.49999734e-01,-7.78806394e-12,1.31977320,3.67228817,8.37987420e-01,-2.84509847,2.21139124e-05,5.92912040,-1.65290745,-1,-0.9995987518536663
1.71514927e+04,7.49999728e-01,-7.46025855e-12,1.30795012,3.67271822,8.31215768e-01,-2.84509847,2.18963948e-05,5.93560702,-1.63346584,-1,-0.9995756370567245
1.80520227e+04,7.49999721e-01,-7.14324441e-12,1.29584175,3.67310009,8.24397837e-01,-2.84509847,2.16655929e-05,5.94214146,-1.61388015,-1,-0.999551326855945
1.89993372e+04,7.49999715e-01,-6.83676608e-12,1.28362699,3.67347766,8.17535331e-01,-2.84509847,2.14310380e-05,5.94872253,-1.59415449,-1,-0.9995257536871487
1.99958545e+04,7.49999708e-01,-6.54071564e-12,1.27130738,3.67384991,8.10631015e-01,-2.84509847,2.11926281e-05,5.95534722,-1.57429747,-1,-0.9994988522672702
2.10451935e+04,7.49999701e-01,-6.25932614e-12,1.25927724,3.67432011,8.03675546e-01,-2.84509847,2.09867161e-05,5.96202384,-1.55428282,-1,-0.9994705249025232
2.21483332e+04,7.49999695e-01,-5.98631942e-12,1.24682193,3.67470034,7.96687429e-01,-2.84509847,2.07546285e-05,5.96873474,-1.53416360,-1,-0.9994407451643749
2.33088185e+04,7.49999688e-01,-5.72227888e-12,1.23425886,3.67506954,7.89667513e-01,-2.84509847,2.05147240e-05,5.97547867,-1.51394346,-1,-0.9994094173567011
2.45297555e+04,7.49999681e-01,-5.46889983e-12,1.22161647,3.67543291,7.82619565e-01,-2.84509847,2.02748691e-05,5.98225267,-1.49363353,-1,-0.9993764576289752
2.58142419e+04,7.49999674e-01,-5.22526378e-12,1.20888271,3.67578489,7.75548733e-01,-2.84509847,2.00315196e-05,5.98905227,-1.47324296,-1,-0.9993417823574324
2.71669667e+04,7.49999668e-01,-4.99175972e-12,1.19644307,3.67622330,7.68452084e-01,-2.84509847,1.98059759e-05,5.99588063,-1.45276590,-1,-0.9993052649604692
2.85891899e+04,7.49999661e-01,-4.77047435e-12,1.18361660,3.67656925,7.61346962e-01,-2.84509847,1.95734670e-05,6.00272068,-1.43225597,-1,-0.9992668714238352
3.00856245e+04,7.49999654e-01,-4.55660952e-12,1.17075265,3.67690692,7.54239632e-01,-2.84509847,1.93319415e-05,6.00956550,-1.41173145,-1,-0.9992264745180361
3.16603670e+04,7.49999647e-01,-4.35143063e-12,1.15786797,3.67723576,7.47139613e-01,-2.84509847,1.90867690e-05,6.01640546,-1.39122109,-1,-0.9991839636562649
3.33188107e+04,7.49999640e-01,-4.15662666e-12,1.14526186,3.67762789,7.40052305e-01,-2.84509847,1.88598143e-05,6.02323545,-1.37073489,-1,-0.9991391932440318
3.50634721e+04,7.49999633e-01,-3.97247279e-12,1.13248730,3.67796014,7.33000515e-01,-2.84509847,1.86306740e-05,6.03003449,-1.35034032,-1,-0.9990920953473198
3.69002606e+04,7.49999626e-01,-3.79668863e-12,1.11982722,3.67829547,7.25999830e-01,-2.84509847,1.84016218e-05,6.03678770,-1.33008217,-1,-0.9990425104392943
3.88336440e+04,7.49999619e-01,-3.62952012e-12,1.10718821,3.67859663,7.19078002e-01,-2.84509847,1.81673481e-05,6.04346789,-1.31004153,-1,-0.9989903179097421
4.08697825e+04,7.49999611e-01,-3.47129483e-12,1.09473896,3.67889385,7.12258924e-01,-2.84509847,1.79355877e-05,6.05005207,-1.29028937,-1,-0.9989353514613732
4.30147287e+04,7.49999604e-01,-3.32347024e-12,1.08255757,3.67919128,7.05573367e-01,-2.84509847,1.77150665e-05,6.05651024,-1.27091415,-1,-0.9988774477016062
4.52736942e+04,7.49999597e-01,-3.18497391e-12,1.07057310,3.67944991,6.99063887e-01,-2.84509847,1.74943519e-05,6.06280071,-1.25204496,-1,-0.9988164659410222
4.76587090e+04,7.49999589e-01,-3.05757869e-12,1.05927478,3.67977323,6.92768080e-01,-2.84509847,1.73006466e-05,6.06888685,-1.23378609,-1,-0.9987520814245155
5.01720697e+04,7.49999582e-01,-2.93928206e-12,1.04826180,3.68003618,6.86735693e-01,-2.84509847,1.71036619e-05,6.07472062,-1.21628435,-1,-0.9986842321543657
5.28206018e+04,7.49999574e-01,-2.83138026e-12,1.03780580,3.68028907,6.81001910e-01,-2.84509847,1.69204661e-05,6.08026763,-1.19964096,-1,-0.9986127338732184
5.56173325e+04,7.49999567e-01,-2.73321461e-12,1.02787214,3.68049352,6.75626176e-01,-2.84509847,1.67413483e-05,6.08547037,-1.18403332,-1,-0.998537234906118
5.85637169e+04,7.49999559e-01,-2.64419579e-12,1.01859370,3.68067858,6.70616840e-01,-2.84509847,1.65717947e-05,6.09031970,-1.16948484,-1,-0.9984576959720045
6.16757483e+04,7.49999551e-01,-2.56463324e-12,1.01003130,3.68084456,6.66003677e-01,-2.84509847,1.64150796e-05,6.09478671,-1.15608549,-1,-0.9983736853247571
6.49589051e+04,7.49999543e-01,-2.49361615e-12,1.00214859,3.68099085,6.61769745e-01,-2.84509847,1.62708596e-05,6.09888735,-1.14378081,-1,-0.9982850550725743
6.84195707e+04,7.49999534e-01,-2.42991697e-12,9.94903856e-01,3.68112509,6.57878894e-01,-2.84509847,1.61383029e-05,6.10265611,-1.13247204,-1,-0.9981916328927842
7.20723913e+04,7.49999525e-01,-2.37308265e-12,9.88209356e-01,3.68124638,6.54289076e-01,-2.84509847,1.60196477e-05,6.10613408,-1.12203451,-1,-0.9980930234048193
7.59268428e+04,7.49999516e-01,-2.32120935e-12,9.81928060e-01,3.68135800,6.50925183e-01,-2.84509847,1.59100663e-05,6.10939401,-1.11225267,-1,-0.9979889708026191
7.99762168e+04,7.49999507e-01,-2.27273465e-12,9.76004049e-01,3.68149194,6.47695301e-01,-2.84509847,1.58118434e-05,6.11252441,-1.10285600,-1,-0.9978796561823723
8.42599047e+04,7.49999498e-01,-2.22689451e-12,9.70079418e-01,3.68159560,6.44525660e-01,-2.84509847,1.57162248e-05,6.11559716,-1.09363601,-1,-0.9977640161560264
8.87499944e+04,7.49999488e-01,-2.18148617e-12,9.64082213e-01,3.68169611,6.41326032e-01,-2.84509847,1.56199723e-05,6.11869981,-1.08432537,-1,-0.9976428042229154
9.35029764e+04,7.49999478e-01,-2.13530964e-12,9.57811317e-01,3.68179779,6.37987230e-01,-2.84509847,1.55205833e-05,6.12193804,-1.07460941,-1,-0.9975144953973119
9.84796372e+04,7.49999467e-01,-2.08723722e-12,9.51154409e-01,3.68190248,6.34449406e-01,-2.84509847,1.54146834e-05,6.12537000,-1.06431267,-1,-0.99738014826478
1.03739680e+05,7.49999456e-01,-2.03544151e-12,9.43990499e-01,3.68205681,6.30558774e-01,-2.84509847,1.53024749e-05,6.12914500,-1.05298650,-1,-0.9972381511113524
1.09251457e+05,7.49999445e-01,-1.98062245e-12,9.36069851e-01,3.68222616,6.26259763e-01,-2.84509847,1.51867020e-05,6.13331696,-1.04046906,-1,-0.9970893582832165
1.15039991e+05,7.49999434e-01,-1.91848405e-12,9.26927322e-01,3.68236238,6.21416045e-01,-2.84509847,1.50331822e-05,6.13801832,-1.02636146,-1,-0.9969330942789544
1.21119441e+05,7.49999423e-01,-1.84948805e-12,9.16459466e-01,3.68251820,6.15870481e-01,-2.84509847,1.48568770e-05,6.14340227,-1.01020400,-1,-0.9967689768701748
1.27485327e+05,7.49999411e-01,-1.77266460e-12,9.04393796e-01,3.68269127,6.09491519e-01,-2.84509847,1.46512758e-05,6.14959703,-9.91610942e-01,-1,-0.9965971269964352
1.34131468e+05,7.49999400e-01,-1.68807880e-12,8.90614804e-01,3.68291059,6.02163373e-01,-2.84509847,1.44195801e-05,6.15671580,-9.70243995e-01,-1,-0.9964177115165311
1.41055996e+05,7.49999389e-01,-1.59569062e-12,8.74654660e-01,3.68311076,5.93782972e-01,-2.84509847,1.41471057e-05,6.16485967,-9.45802908e-01,-1,-0.9962307808579385
1.48256587e+05,7.49999378e-01,-1.49772432e-12,8.56706856e-01,3.68331521,5.84400163e-01,-2.84509847,1.38414139e-05,6.17398115,-9.18427423e-01,-1,-0.9960363977580525
1.55763390e+05,7.49999367e-01,-1.39865792e-12,8.37453546e-01,3.68359797,5.74207992e-01,-2.84509847,1.35291284e-05,6.18389399,-8.88671612e-01,-1,-0.9958337483314468
1.63597469e+05,7.49999356e-01,-1.30203936e-12,8.17154081e-01,3.68382144,5.63611305e-01,-2.84509847,1.31984430e-05,6.19420554,-8.57714696e-01,-1,-0.9956222639462385
1.71815392e+05,7.49999346e-01,-1.21174302e-12,7.96620415e-01,3.68401028,5.52966805e-01,-2.84509847,1.28706097e-05,6.20456987,-8.26598230e-01,-1,-0.9954004175245541
1.80455749e+05,7.49999336e-01,-1.12858834e-12,7.76270251e-01,3.68417340,5.42465486e-01,-2.84509847,1.25509332e-05,6.21480123,-7.95882439e-01,-1,-0.995167167312484
1.89553819e+05,7.49999326e-01,-1.05243409e-12,7.56246139e-01,3.68432455,5.32151119e-01,-2.84509847,1.22430832e-05,6.22492413,-7.65568745e-01,-1,-0.9949215609380102
1.99123255e+05,7.49999317e-01,-9.82424512e-13,7.36410931e-01,3.68442564,5.22031333e-01,-2.84509847,1.19405489e-05,6.23478915,-7.35940352e-01,-1,-0.9946632298324329
2.09203272e+05,7.49999307e-01,-9.18218745e-13,7.17030942e-01,3.68456007,5.12072486e-01,-2.84509847,1.16555412e-05,6.24450121,-7.06775156e-01,-1,-0.9943911153696947
2.19807621e+05,7.49999298e-01,-8.58677573e-13,6.97764238e-01,3.68463950,5.02280273e-01,-2.84509847,1.13700856e-05,6.25405537,-6.78091566e-01,-1,-0.9941048463355431
2.30967549e+05,7.49999289e-01,-8.04057566e-13,6.78782467e-01,3.68471844,4.92631511e-01,-2.84509847,1.10996729e-05,6.26347342,-6.49815126e-01,-1,-0.9938035792035613
2.42700975e+05,7.49999280e-01,-7.53158939e-13,6.59865036e-01,3.68473886,4.83131945e-01,-2.84509847,1.08273541e-05,6.27274999,-6.21955431e-01,-1,-0.9934868302425162
2.55049799e+05,7.49999271e-01,-7.06062699e-13,6.41208445e-01,3.68475976,4.73761862e-01,-2.84509847,1.05647788e-05,6.28190364,-5.94460057e-01,-1,-0.9931534683436019
2.68034584e+05,7.49999262e-01,-6.62290234e-13,6.22607305e-01,3.68472814,4.64524531e-01,-2.84509847,1.03043411e-05,6.29092972,-5.67349799e-01,-1,-0.9928029383996498
2.81714549e+05,7.49999253e-01,-6.21966691e-13,6.04470184e-01,3.68476126,4.55389733e-01,-2.84509847,1.00630586e-05,6.29985753,-5.40535264e-01,-1,-0.9924336417678831
2.96094094e+05,7.49999245e-01,-5.84072296e-13,5.86287961e-01,3.68472403,4.46373066e-01,-2.84509847,9.81659704e-06,6.30867254,-5.14057237e-01,-1,-0.9920454596683792
3.11218595e+05,7.49999236e-01,-5.49028619e-13,5.68209380e-01,3.68466022,4.37461410e-01,-2.84509847,9.57937310e-06,6.31738862,-4.87876553e-01,-1,-0.9916371671561942
3.27125667e+05,7.49999228e-01,-5.16205345e-13,5.50223657e-01,3.68456848,4.28652017e-01,-2.84509847,9.34403939e-06,6.32600889,-4.61981541e-01,-1,-0.9912077487979695
3.43854241e+05,7.49999219e-01,-4.85518887e-13,5.32323116e-01,3.68444962,4.19939464e-01,-2.84509847,9.11223945e-06,6.33453769,-4.36361411e-01,-1,-0.9907561536343517
3.61461653e+05,7.49999211e-01,-4.56899498e-13,5.14696507e-01,3.68435760,4.11310206e-01,-2.84509847,8.88961209e-06,6.34298673,-4.10978376e-01,-1,-0.9902808338549713
3.79965150e+05,7.49999203e-01,-4.30268589e-13,4.96992109e-01,3.68420066,4.02771877e-01,-2.84509847,8.67102949e-06,6.35134772,-3.85857898e-01,-1,-0.9897813238695287
3.99435787e+05,7.49999195e-01,-4.05214239e-13,4.79361420e-01,3.68401998,3.94317900e-01,-2.84509847,8.45368763e-06,6.35962762,-3.60977996e-01,-1,-0.9892557055172555
4.19935352e+05,7.49999187e-01,-3.81794232e-13,4.62088867e-01,3.68389596,3.85929665e-01,-2.84509847,8.24679053e-06,6.36784554,-3.36281939e-01,-1,-0.9887023108040977
4.41466004e+05,7.49999179e-01,-3.59981476e-13,4.44649872e-01,3.68369019,3.77621699e-01,-2.84509847,8.04345843e-06,6.37598736,-3.11815794e-01,-1,-0.9881210814469069
4.64118620e+05,7.49999171e-01,-3.39379757e-13,4.27268474e-01,3.68346232,3.69386751e-01,-2.84509847,7.84068179e-06,6.38405922,-2.87557994e-01,-1,-0.9875095641813652
4.87941557e+05,7.49999163e-01,-3.20049713e-13,4.09946772e-01,3.68321492,3.61220697e-01,-2.84509847,7.64233631e-06,6.39206557,-2.63497543e-01,-1,-0.986866453589131
5.12978328e+05,7.49999156e-01,-3.01841386e-13,3.92655966e-01,3.68294215,3.53120833e-01,-2.84509847,7.44663518e-06,6.40000882,-2.39623605e-01,-1,-0.9861905750177592
5.39333296e+05,7.49999148e-01,-2.84828003e-13,3.75415854e-01,3.68264978,3.45085516e-01,-2.84509847,7.25713830e-06,6.40789186,-2.15934142e-01,-1,-0.98547911114247
5.67074215e+05,7.49999140e-01,-2.68986287e-13,3.58566779e-01,3.68243313,3.37094283e-01,-2.84509847,7.08079450e-06,6.41573352,-1.92370586e-01,-1,-0.9847302329144325
5.96222133e+05,7.49999133e-01,-2.53937841e-13,3.41459643e-01,3.68211794,3.29171096e-01,-2.84509847,6.90017998e-06,6.42350928,-1.68996396e-01,-1,-0.9839433721336911
6.26867024e+05,7.49999125e-01,-2.39776722e-13,3.24395079e-01,3.68178506,3.21304573e-01,-2.84509847,6.72363296e-06,6.43123088,-1.45787001e-01,-1,-0.9831160999128075
6.59101411e+05,7.49999118e-01,-2.26455103e-13,3.07364629e-01,3.68143311,3.13493241e-01,-2.84509847,6.55110247e-06,6.43889922,-1.22736699e-01,-1,-0.9822459185529746
6.92989995e+05,7.49999110e-01,-2.13908567e-13,2.90359085e-01,3.68106138,3.05733925e-01,-2.84509847,6.38243404e-06,6.44651808,-9.98316077e-02,-1,-0.9813310814224303
7.28631761e+05,7.49999103e-01,-2.02072011e-13,2.73338015e-01,3.68065942,2.98027322e-01,-2.84509847,6.21644374e-06,6.45408632,-7.70771486e-02,-1,-0.9803689163778545
7.66095908e+05,7.49999096e-01,-1.90938283e-13,2.56359807e-01,3.68024394,2.90369179e-01,-2.84509847,6.05519171e-06,6.46160862,-5.44578756e-02,-1,-0.9793575553620102
8.05520575e+05,7.49999089e-01,-1.80448416e-13,2.39403095e-01,3.67980930,2.82760101e-01,-2.84509847,5.89758714e-06,6.46908446,-3.19767816e-02,-1,-0.9782932692522411
