star_age,star_mass,star_mdot,log_L,log_Teff,log_R,log_surf_z,v_wind_Km_per_s,log_center_T,log_center_Rho,phase,x
4.38037605e+02,2.59999983,-3.43541476e-10,2.75545448,3.65670336,1.58699767,-2.84509855,4.61503860e-05,5.71696000,-3.34986525,-1,-1.0
4.57477612e+02,2.59999982,-3.39415764e-10,2.77086959,3.66177354,1.58456486,-2.84509855,5.76034929e-05,5.71898608,-3.34380564,-1,-0.9999920477325271
4.79350099e+02,2.59999981,-3.49230531e-10,2.77182112,3.66321879,1.58215013,-2.84509855,6.28452360e-05,5.72124379,-3.33704987,-1,-0.9999831004174916
5.02807131e+02,2.59999980,-3.46503707e-10,2.76798693,3.66349672,1.57967717,-2.84509855,6.32388092e-05,5.72363289,-3.32989758,-1,-0.999973504917213
5.27482282e+02,2.59999980,-3.41731886e-10,2.76394819,3.66376649,1.57711827,-2.84509855,6.32745530e-05,5.72610562,-3.32249478,-1,-0.9999634111245161
5.53320518e+02,2.59999979,-3.36761017e-10,2.75976570,3.66403996,1.57448008,-2.84509855,6.32857612e-05,5.72865501,-3.31486149,-1,-0.999952841552
5.80396664e+02,2.59999978,-3.31538765e-10,2.75545160,3.66432184,1.57175928,-2.84509855,6.32656567e-05,5.73128436,-3.30698878,-1,-0.9999417655912184
6.08768838e+02,2.59999977,-3.26168691e-10,2.75104578,3.66462303,1.56895399,-2.84509855,6.32417010e-05,5.73399551,-3.29887062,-1,-0.9999301594680089
6.38483706e+02,2.59999976,-3.20627907e-10,2.74646741,3.66492341,1.56606405,-2.84509855,6.31904507e-05,5.73678887,-3.29050603,-1,-0.9999180040928458
6.69712423e+02,2.59999975,-3.14948320e-10,2.74171686,3.66522685,1.56308189,-2.84509855,6.31201696e-05,5.73967147,-3.28187457,-1,-0.9999052294518481
7.02516747e+02,2.59999974,-3.09288497e-10,2.73687887,3.66555474,1.56000712,-2.84509855,6.30791392e-05,5.74264379,-3.27297268,-1,-0.999891810281849
7.36849762e+02,2.59999973,-3.03595155e-10,2.73195884,3.66590584,1.55684489,-2.84509855,6.30554567e-05,5.74570082,-3.26381767,-1,-0.9998777657746414
7.72758685e+02,2.59999972,-2.97786542e-10,2.72678749,3.66623682,1.55359726,-2.84509855,6.29929113e-05,5.74884106,-3.25441300,-1,-0.9998630766153032
8.10571195e+02,2.59999971,-2.91941585e-10,2.72148524,3.66658500,1.55024978,-2.84509855,6.29394488e-05,5.75207826,-3.24471718,-1,-0.9998476087611331
8.50158610e+02,2.59999970,-2.86018641e-10,2.71600180,3.66693235,1.54681335,-2.84509855,6.28677445e-05,5.75540202,-3.23476311,-1,-0.9998314148517049
8.91576326e+02,2.59999968,-2.80075225e-10,2.71064056,3.66735596,1.54328551,-2.84509855,6.28584911e-05,5.75881399,-3.22454386,-1,-0.9998144722263371
9.35173857e+02,2.59999967,-2.74156929e-10,2.70492762,3.66774216,1.53965663,-2.84509855,6.28197379e-05,5.76232489,-3.21402635,-1,-0.999796637910348
9.80690931e+02,2.59999966,-2.68187330e-10,2.69907167,3.66813553,1.53594193,-2.84509855,6.27720116e-05,5.76591960,-3.20325951,-1,-0.9997780183724523
1.02860184e+03,2.59999965,-2.62189742e-10,2.69299460,3.66852403,1.53212640,-2.84509855,6.27078829e-05,5.76961264,-3.19219560,-1,-0.9997584195953922
1.07868190e+03,2.59999963,-2.56200697e-10,2.68676072,3.66891683,1.52822384,-2.84509855,6.26422992e-05,5.77339096,-3.18087803,-1,-0.9997379334900026
1.13125641e+03,2.59999962,-2.50156582e-10,2.68034660,3.66931235,1.52422576,-2.84509855,6.25562170e-05,5.77726223,-3.16927950,-1,-0.9997164269871616
1.18637605e+03,2.59999961,-2.44103830e-10,2.67386615,3.66973824,1.52013374,-2.84509855,6.24844228e-05,5.78122481,-3.15740739,-1,-0.999693879355348
1.24405069e+03,2.59999959,-2.38060215e-10,2.66730985,3.67019107,1.51594994,-2.84509855,6.24275524e-05,5.78527666,-3.14526886,-1,-0.9996702865570696
1.30463685e+03,2.59999958,-2.32130628e-10,2.66065048,3.67066786,1.51166667,-2.84509854,6.24084596e-05,5.78942474,-3.13284038,-1,-0.9996455027517204
1.36814556e+03,2.59999956,-2.26209246e-10,2.65365375,3.67110526,1.50729351,-2.84509854,6.23390041e-05,5.79366140,-3.12014628,-1,-0.9996195234272902
1.43466742e+03,2.59999955,-2.20268349e-10,2.64658499,3.67156990,1.50282985,-2.84509854,6.22711081e-05,5.79798603,-3.10718917,-1,-0.999592311522299
1.50436585e+03,2.59999954,-2.14417312e-10,2.63946672,3.67206857,1.49827338,-2.84509854,6.22414029e-05,5.80240087,-3.09396004,-1,-0.9995638001869996
1.57740855e+03,2.59999952,-2.08519946e-10,2.63204206,3.67253523,1.49362772,-2.84509854,6.21444005e-05,5.80690338,-3.08046961,-1,-0.9995339208208378
1.65397561e+03,2.59999950,-2.02750049e-10,2.62456993,3.67303550,1.48889112,-2.84509854,6.20924189e-05,5.81149439,-3.06671126,-1,-0.9995025997549177
1.73425487e+03,2.59999949,-1.96984624e-10,2.61684862,3.67351770,1.48406606,-2.84509853,6.19971949e-05,5.81617225,-3.05269067,-1,-0.9994697601500737
1.81839593e+03,2.59999947,-1.91282942e-10,2.60895615,3.67400027,1.47915468,-2.84509853,6.18923036e-05,5.82093490,-3.03841506,-1,-0.9994353408098662
1.90657432e+03,2.59999946,-1.85651163e-10,2.60107862,3.67453102,1.47415443,-2.84509852,6.18241357e-05,5.82578398,-3.02387993,-1,-0.9993992699307451
1.99908163e+03,2.59999944,-1.80019873e-10,2.59322615,3.67511478,1.46906068,-2.84509851,6.17713216e-05,5.83072406,-3.00907206,-1,-0.9993614282328324
2.09598573e+03,2.59999942,-1.74464927e-10,2.58505822,3.67566103,1.46388421,-2.84509851,6.16715129e-05,5.83574595,-2.99401759,-1,-0.9993217879527431
2.19742344e+03,2.59999940,-1.69072269e-10,2.57676332,3.67621700,1.45862482,-2.84509851,6.15997882e-05,5.84084908,-2.97871951,-1,-0.9992802931219152
2.30386814e+03,2.59999939,-1.63795632e-10,2.56832323,3.67677844,1.45328188,-2.84509851,6.15332860e-05,5.84603513,-2.96317410,-1,-0.9992367500961606
2.41529285e+03,2.59999937,-1.58646280e-10,2.55965202,3.67731977,1.44786363,-2.84509850,6.14529796e-05,5.85129623,-2.94740604,-1,-0.9991911699121099
2.53212187e+03,2.59999935,-1.53482399e-10,2.55091994,3.67788577,1.44236558,-2.84509850,6.13455313e-05,5.85663658,-2.93139987,-1,-0.9991433790025883
2.65449031e+03,2.59999933,-1.48441065e-10,2.54204644,3.67845434,1.43679169,-2.84509850,6.12395120e-05,5.86205186,-2.91516971,-1,-0.999093322098539
2.78280672e+03,2.59999931,-1.43495652e-10,2.53308988,3.67904076,1.43114058,-2.84509849,6.11396784e-05,5.86754272,-2.89871050,-1,-0.999040832075594
2.91715056e+03,2.59999929,-1.38723952e-10,2.52404042,3.67964100,1.42541537,-2.84509848,6.10761564e-05,5.87310625,-2.88203088,-1,-0.998985876429281
3.05801923e+03,2.59999928,-1.34001203e-10,2.51483774,3.68023857,1.41961889,-2.84509848,6.09763929e-05,5.87873967,-2.86514143,-1,-0.9989282516896197
3.20563438e+03,2.59999926,-1.29414027e-10,2.50549009,3.68083030,1.41376159,-2.84509848,6.08739546e-05,5.88429143,-2.84831855,-1,-0.9988678671868852
3.36019223e+03,2.59999924,-1.24905789e-10,2.49598231,3.68141791,1.40783248,-2.84509848,6.07481474e-05,5.89002562,-2.83109068,-1,-0.9988046426539294
3.52219441e+03,2.59999922,-1.20461492e-10,2.48661902,3.68207638,1.40183391,-2.84509847,6.06604615e-05,5.89584040,-2.81363508,-1,-0.998738372890418
3.69197795e+03,2.59999920,-1.16256976e-10,2.47688478,3.68267445,1.39577063,-2.84509847,6.05720874e-05,5.90173589,-2.79595478,-1,-0.9986689200284632
3.86990690e+03,2.59999918,-1.12086992e-10,2.46722197,3.68332481,1.38963852,-2.84509847,6.04906013e-05,5.90770182,-2.77806261,-1,-0.9985961351471836
4.05624477e+03,2.59999916,-1.08032394e-10,2.45728605,3.68393448,1.38345121,-2.84509847,6.03648816e-05,5.91372173,-2.76000924,-1,-0.9985199104533053
4.25141978e+03,2.59999914,-1.04046667e-10,2.44720614,3.68453692,1.37720638,-2.84509847,6.02015411e-05,5.91980021,-2.74178152,-1,-0.9984400707761106
4.45598843e+03,2.59999912,-1.00170943e-10,2.43725380,3.68520264,1.37089878,-2.84509847,6.00930681e-05,5.92594086,-2.72336680,-1,-0.9983563884697532
4.67025660e+03,2.59999909,-9.64380959e-11,2.42700336,3.68581995,1.36453894,-2.84509847,5.99495787e-05,5.93213358,-2.70479278,-1,-0.9982687384087854
4.89467107e+03,2.59999907,-9.28292252e-11,2.41664448,3.68643386,1.35813167,-2.84509847,5.98058843e-05,5.93837430,-2.68607493,-1,-0.9981769378302041
5.12989716e+03,2.59999905,-8.92890254e-11,2.40634542,3.68709177,1.35166633,-2.84509847,5.96748359e-05,5.94467359,-2.66718462,-1,-0.9980807145734799
5.37635376e+03,2.59999903,-8.58542698e-11,2.39591614,3.68774374,1.34514775,-2.84509847,5.95310840e-05,5.95102746,-2.64812881,-1,-0.9979798972844915
5.63451262e+03,2.59999901,-8.25348081e-11,2.38530838,3.68837269,1.33858596,-2.84509847,5.93643160e-05,5.95742500,-2.62894234,-1,-0.9978742929858297
5.90508758e+03,2.59999899,-7.94241340e-11,2.37484507,3.68906366,1.33197236,-2.84509847,5.93306860e-05,5.96387412,-2.60959849,-1,-0.9977636096690293
6.18855515e+03,2.59999897,-7.63616480e-11,2.36417961,3.68972424,1.32531848,-2.84509847,5.92244765e-05,5.97036351,-2.59013628,-1,-0.9976476524095218
6.48550682e+03,2.59999894,-7.33717839e-11,2.35334694,3.69036318,1.31862426,-2.84509847,5.90707737e-05,5.97689337,-2.57054862,-1,-0.9975261792482025
6.79649179e+03,2.59999892,-7.04449781e-11,2.34249108,3.69101759,1.31188750,-2.84509847,5.88995589e-05,5.98346655,-2.55083118,-1,-0.9973989655254151
7.12239161e+03,2.59999890,-6.76709775e-11,2.33183459,3.69174585,1.30510275,-2.84509847,5.88464748e-05,5.99008839,-2.53096613,-1,-0.9972656506280488
7.46370049e+03,2.59999888,-6.49494741e-11,2.32079521,3.69239557,1.29828362,-2.84509847,5.86728427e-05,5.99674659,-2.51099396,-1,-0.9971260323910477
7.82149680e+03,2.59999885,-6.23281905e-11,2.30979001,3.69307293,1.29142630,-2.84509847,5.85282060e-05,6.00344395,-2.49090544,-1,-0.9969796696887128
8.19617304e+03,2.59999883,-5.97983445e-11,2.29867228,3.69373978,1.28453372,-2.84509847,5.83693910e-05,6.01017678,-2.47071069,-1,-0.9968264019622036
8.58861433e+03,2.59999881,-5.73609567e-11,2.28748401,3.69440541,1.27760833,-2.84509847,5.82090746e-05,6.01694284,-2.45041500,-1,-0.9966658671380401
8.99972620e+03,2.59999879,-5.50136394e-11,2.27630193,3.69508908,1.27064996,-2.84509847,5.80675251e-05,6.02374273,-2.43001690,-1,-0.9964976947936827
9.43042303e+03,2.59999876,-5.27477420e-11,2.26509041,3.69578167,1.26365902,-2.84509847,5.79282932e-05,6.03057687,-2.40951732,-1,-0.9963215108863476
9.88174149e+03,2.59999874,-5.05666250e-11,2.25374276,3.69645434,1.25663985,-2.84509847,5.77681766e-05,6.03744159,-2.38892642,-1,-0.9961368913484344
1.03545109e+04,2.59999872,-4.84497934e-11,2.24232901,3.69712519,1.24959127,-2.84509847,5.75824660e-05,6.04433664,-2.36824649,-1,-0.9959434969324079
1.08499306e+04,2.59999869,-4.64338017e-11,2.23097231,3.69782236,1.24251860,-2.84509847,5.74479089e-05,6.05125628,-2.34749089,-1,-0.995740837027721
1.13688390e+04,2.59999867,-4.45041293e-11,2.21950973,3.69850476,1.23542250,-2.84509847,5.73096517e-05,6.05819943,-2.32666276,-1,-0.9955285686684182
1.19125263e+04,2.59999865,-4.26258624e-11,2.20807978,3.69920662,1.22830381,-2.84509847,5.71604256e-05,6.06516564,-2.30576546,-1,-0.9953061640761149
1.24820388e+04,2.59999862,-4.08458299e-11,2.19656972,3.69989925,1.22116350,-2.84509847,5.70364942e-05,6.07215469,-2.28479750,-1,-0.9950731952438944
1.30786274e+04,2.59999860,-3.91182266e-11,2.18498678,3.70058122,1.21400811,-2.84509847,5.68761112e-05,6.07916075,-2.26377806,-1,-0.9948291504697093
1.37035718e+04,2.59999857,-3.74648072e-11,2.17331080,3.70124409,1.20684437,-2.84509847,5.67021937e-05,6.08617729,-2.24272888,-1,-0.9945735062703797
1.43582976e+04,2.59999855,-3.58723267e-11,2.16160886,3.70190361,1.19967437,-2.84509847,5.65152000e-05,6.09320180,-2.22165418,-1,-0.994305679479834
1.50444059e+04,2.59999853,-3.43404832e-11,2.14997814,3.70258321,1.19249980,-2.84509847,5.63414170e-05,6.10023238,-2.20056076,-1,-0.9940250151407233
1.57633342e+04,2.59999850,-3.28901435e-11,2.13835582,3.70326532,1.18532442,-2.84509847,5.62008559e-05,6.10726505,-2.17946317,-1,-0.9937309252190775
1.65165561e+04,2.59999848,-3.14960565e-11,2.12669109,3.70393079,1.17816112,-2.84509847,5.60344130e-05,6.11428744,-2.15839812,-1,-0.9934228069136041
1.73057592e+04,2.59999845,-3.01607115e-11,2.11499184,3.70457668,1.17101972,-2.84509847,5.58434470e-05,6.12129024,-2.13739263,-1,-0.993099969882649
1.81329958e+04,2.59999843,-2.88844906e-11,2.10340776,3.70523617,1.16390868,-2.84509847,5.56682582e-05,6.12826539,-2.11646847,-1,-0.9927615745977834
1.90001690e+04,2.59999841,-2.76758856e-11,2.09194478,3.70590655,1.15683644,-2.84509847,5.55263152e-05,6.13520455,-2.09565267,-1,-0.992406842563391
1.99089763e+04,2.59999838,-2.65249421e-11,2.08046764,3.70654140,1.14982818,-2.84509847,5.53501208e-05,6.14208253,-2.07502123,-1,-0.9920350793880532
2.08617104e+04,2.59999836,-2.54318480e-11,2.06908978,3.70715923,1.14290357,-2.84509847,5.51627337e-05,6.14887925,-2.05463418,-1,-0.9916453472036084
2.18610245e+04,2.59999833,-2.43927453e-11,2.05799752,3.70779694,1.13608203,-2.84509847,5.49992418e-05,6.15557529,-2.03454697,-1,-0.9912365606732013
2.29087794e+04,2.59999831,-2.34258916e-11,2.04702125,3.70839899,1.12938979,-2.84509847,5.48390279e-05,6.16214556,-2.01483447,-1,-0.9908079586047545
2.40092160e+04,2.59999828,-2.25140007e-11,2.03638159,3.70900053,1.12286689,-2.84509847,5.46858127e-05,6.16855115,-1.99561696,-1,-0.9903578061855631
2.51638221e+04,2.59999826,-2.16620399e-11,2.02604015,3.70957782,1.11654158,-2.84509847,5.45292199e-05,6.17476386,-1.97697717,-1,-0.9898854948055816
2.63750765e+04,2.59999823,-2.08733702e-11,2.01599903,3.71011397,1.11044874,-2.84509847,5.43640993e-05,6.18074953,-1.95901863,-1,-0.989390010469259
2.76473480e+04,2.59999821,-2.01444116e-11,2.00648124,3.71064566,1.10462645,-2.84509847,5.42228965e-05,6.18647029,-1.94185493,-1,-0.988869566044207
2.89836622e+04,2.59999818,-1.94764881e-11,1.99745243,3.71114989,1.09910359,-2.84509847,5.40906073e-05,6.19189793,-1.92557209,-1,-0.988322923856979
3.03871170e+04,2.59999815,-1.88660853e-11,1.98886080,3.71160501,1.09389752,-2.84509847,5.39409520e-05,6.19701510,-1.91022049,-1,-0.9877488166585764
3.18601008e+04,2.59999813,-1.83104243e-11,1.98079378,3.71202971,1.08901462,-2.84509847,5.37995159e-05,6.20181527,-1.89582147,-1,-0.9871462674331147
3.34069045e+04,2.59999810,-1.78021556e-11,1.97321763,3.71242112,1.08444372,-2.84509847,5.36527877e-05,6.20630943,-1.88234058,-1,-0.9865135209145337
3.50321727e+04,2.59999807,-1.73406242e-11,1.96627061,3.71282828,1.08015590,-2.84509847,5.35659496e-05,6.21052568,-1.86969199,-1,-0.9858486771497363
3.67390902e+04,2.59999804,-1.69233634e-11,1.95957878,3.71317959,1.07610737,-2.84509847,5.34727570e-05,6.21450737,-1.85774625,-1,-0.9851504333417923
3.85309665e+04,2.59999801,-1.65301583e-11,1.95319805,3.71352616,1.07222385,-2.84509847,5.33872023e-05,6.21832745,-1.84628635,-1,-0.9844174356831025
4.04092915e+04,2.59999798,-1.61550036e-11,1.94694482,3.71386083,1.06842790,-2.84509847,5.33001311e-05,6.22206172,-1.83508185,-1,-0.9836490747045803
4.23758140e+04,2.59999795,-1.57919609e-11,1.94066752,3.71418467,1.06464156,-2.84509847,5.32136945e-05,6.22578696,-1.82390618,-1,-0.9828446350296647
4.44443524e+04,2.59999792,-1.54295247e-11,1.93438647,3.71455365,1.06076308,-2.84509847,5.31670786e-05,6.22960327,-1.81245813,-1,-0.9819984640054092
4.66085164e+04,2.59999788,-1.50647899e-11,1.92772314,3.71491968,1.05669936,-2.84509847,5.31194068e-05,6.23360234,-1.80046107,-1,-0.981113175693364
4.88721892e+04,2.59999785,-1.46779966e-11,1.92052753,3.71529037,1.05236019,-2.84509847,5.30235121e-05,6.23787300,-1.78765033,-1,-0.9801871816041292
5.12427705e+04,2.59999782,-1.42657547e-11,1.91266957,3.71569220,1.04762753,-2.84509847,5.29108635e-05,6.24253163,-1.77367564,-1,-0.9792174547638144
5.37228637e+04,2.59999778,-1.38179905e-11,1.90406258,3.71616146,1.04238553,-2.84509847,5.27943052e-05,6.24769251,-1.75819601,-1,-0.9782029302071067
5.63135817e+04,2.59999775,-1.33347818e-11,1.89432439,3.71666011,1.03651913,-2.84509847,5.26413809e-05,6.25346830,-1.74086986,-1,-0.9771431526832197
5.90147512e+04,2.59999771,-1.28085305e-11,1.88336655,3.71721568,1.02992906,-2.84509847,5.24521128e-05,6.25995710,-1.72140323,-1,-0.9760381930834837
6.18271497e+04,2.59999768,-1.22385689e-11,1.87113464,3.71785502,1.02253444,-2.84509847,5.22412600e-05,6.26723869,-1.69955654,-1,-0.9748877333582209
6.47516168e+04,2.59999764,-1.16346523e-11,1.85753478,3.71856732,1.01430990,-2.84509847,5.20119171e-05,6.27533924,-1.67525351,-1,-0.9736914300546863
6.77908253e+04,2.59999761,-1.10100048e-11,1.84263115,3.71932467,1.00534338,-2.84509847,5.17447487e-05,6.28417340,-1.64875037,-1,-0.9724481898183093
7.09534299e+04,2.59999757,-1.03822451e-11,1.82678708,3.72011908,9.95832526e-01,-2.84509847,5.14452363e-05,6.29348013,-1.62054580,-1,-0.9711544722959771
7.42505234e+04,2.59999754,-9.77710729e-12,1.81072170,3.72097261,9.86092780e-01,-2.84509847,5.11869910e-05,6.30106816,-1.58843116,-1,-0.969805739788057
7.77012211e+04,2.59999751,-9.21221612e-12,1.79462426,3.72180020,9.76388872e-01,-2.84509847,5.09248837e-05,6.30901590,-1.55639565,-1,-0.9683941728540301
8.13155356e+04,2.59999748,-8.68587849e-12,1.77865377,3.72260597,9.66792094e-01,-2.84509847,5.06552452e-05,6.31710948,-1.52461674,-1,-0.9669156756685553
8.51029525e+04,2.59999745,-8.19509768e-12,1.76285105,3.72339023,9.57322221e-01,-2.84509847,5.03753597e-05,6.32511564,-1.49331901,-1,-0.9653663679846586
8.90720970e+04,2.59999741,-7.73711542e-12,1.74727046,3.72416407,9.47984250e-01,-2.84509872,5.00939244e-05,6.33307494,-1.46226569,-1,-0.9637427215167067
9.32335441e+04,2.59999738,-7.31290078e-12,1.73202920,3.72496117,9.38769423e-01,-2.84509847,4.98706074e-05,6.34098294,-1.43138532,-1,-0.9620404103800162
9.75937371e+04,2.59999735,-6.91665687e-12,1.71695157,3.72573511,9.29682715e-01,-2.84509847,4.96343153e-05,6.34881684,-1.40064772,-1,-0.9602567988324803
1.02161742e+05,2.59999732,-6.54683599e-12,1.70201217,3.72648358,9.20716073e-01,-2.84509847,4.93870019e-05,6.35656152,-1.36994748,-1,-0.9583881782716839
1.06949663e+05,2.59999729,-6.20007217e-12,1.68724819,3.72721318,9.11874891e-01,-2.84509847,4.91229038e-05,6.36423234,-1.33933093,-1,-0.9564295972675197
1.11967415e+05,2.59999726,-5.87658140e-12,1.67272762,3.72794345,9.03154064e-01,-2.84509848,4.88797958e-05,6.37183503,-1.30875988,-1,-0.9543769999605034
1.17224571e+05,2.59999723,-5.57423000e-12,1.65839716,3.72866157,8.94552587e-01,-2.84509848,4.86401484e-05,6.37937229,-1.27821176,-1,-0.9522264703511953
1.22735680e+05,2.59999720,-5.29193250e-12,1.64442066,3.72941193,8.86063616e-01,-2.84509848,4.84549574e-05,6.38685466,-1.24764473,-1,-0.9499720569222189
1.28512361e+05,2.59999717,-5.02780126e-12,1.63051779,3.73011976,8.77696523e-01,-2.84509848,4.82406426e-05,6.39427899,-1.21706318,-1,-0.9476090067228283
1.34564480e+05,2.59999714,-4.77992685e-12,1.61684290,3.73082610,8.69446404e-01,-2.84509848,4.80360080e-05,6.40165524,-1.18643235,-1,-0.945133283896921
1.40906712e+05,2.59999711,-4.54715569e-12,1.60339666,3.73153131,8.61312867e-01,-2.84509848,4.78399539e-05,6.40899250,-1.15572739,-1,-0.9425388853846643
1.47557288e+05,2.59999708,-4.33018200e-12,1.59018314,3.73223477,8.53299182e-01,-2.84509848,4.76687652e-05,6.41629718,-1.12492835,-1,-0.9398183534835844
1.54524133e+05,2.59999706,-4.12647429e-12,1.57725746,3.73295248,8.45400928e-01,-2.84509848,4.75253537e-05,6.42358130,-1.09400768,-1,-0.9369684463368382
1.61831125e+05,2.59999703,-3.93613702e-12,1.56450734,3.73365111,8.37628594e-01,-2.84509848,4.73841901e-05,6.43084585,-1.06295751,-1,-0.9339793962399842
1.69487951e+05,2.59999700,-3.75784412e-12,1.55219956,3.73440315,8.29970628e-01,-2.84509848,4.73172367e-05,6.43810993,-1.03172875,-1,-0.9308472405599321
1.77517700e+05,2.59999697,-3.59119907e-12,1.54001205,3.73511882,8.22445534e-01,-2.84509848,4.72353342e-05,6.44537303,-1.00032784,-1,-0.92756253434619
1.85928627e+05,2.59999694,-3.43443172e-12,1.52810097,3.73583840,8.15050834e-01,-2.84509848,4.71685079e-05,6.45264763,-9.68727901e-01,-1,-0.9241219007497685
1.94752672e+05,2.59999691,-3.28759817e-12,1.51652133,3.73657168,8.07794455e-01,-2.84509848,4.71325521e-05,6.45994451,-9.36895175e-01,-1,-0.9205122741671891
2.04000305e+05,2.59999688,-3.15093301e-12,1.50523973,3.73730759,8.00681844e-01,-2.84509848,4.71308025e-05,6.46727190,-9.04818374e-01,-1,-0.9167293716658149
2.13695167e+05,2.59999685,-3.02313633e-12,1.49438308,3.73807531,7.93718062e-01,-2.84509848,4.71819576e-05,6.47464526,-8.72462316e-01,-1,-0.9127635224901094
