star_age,star_mass,star_mdot,log_L,log_Teff,log_R,log_surf_z,v_wind_Km_per_s,log_center_T,log_center_Rho,phase,x
3.02157525e+02,3.99999974,-7.58480203e-10,3.10768244,3.65532835,1.76586167,-2.84509851,5.65597253e-05,5.71715050,-3.70805985,-1,-1.0
3.16250436e+02,3.99999972,-7.49035810e-10,3.10427922,3.65551463,1.76378750,-2.84509851,5.64412235e-05,5.71917522,-3.70199413,-1,-0.9999838774418282
3.30971561e+02,3.99999971,-7.39462657e-10,3.10091321,3.65574371,1.76164634,-2.84509851,5.63429574e-05,5.72126473,-3.69573303,-1,-0.9999670361948942
3.45326014e+02,3.99999970,-7.30416338e-10,3.10966912,3.65911313,1.75928546,-2.84509851,6.55499130e-05,5.72334516,-3.68950386,-1,-0.999950614427701
3.60491134e+02,3.99999969,-7.38952129e-10,3.11604776,3.66193105,1.75683894,-2.84509851,7.46904415e-05,5.72555641,-3.68288241,-1,-0.9999332652420442
3.77190400e+02,3.99999968,-7.44301534e-10,3.11275649,3.66234239,1.75437061,-2.84509851,7.64353908e-05,5.72796320,-3.67567037,-1,-0.9999141609641904
3.94669397e+02,3.99999967,-7.34340056e-10,3.10879866,3.66262377,1.75182894,-2.84509851,7.65236703e-05,5.73044457,-3.66823394,-1,-0.9998941646592454
4.13020339e+02,3.99999965,-7.23961833e-10,3.10467539,3.66290440,1.74920604,-2.84509851,7.65790314e-05,5.73300566,-3.66055819,-1,-0.9998731708326396
4.32195560e+02,3.99999964,-7.12987091e-10,3.10042957,3.66319194,1.74650805,-2.84509851,7.65879872e-05,5.73564038,-3.65266238,-1,-0.9998512340151836
4.52241519e+02,3.99999963,-7.01417561e-10,3.09606469,3.66348857,1.74373235,-2.84509851,7.65507648e-05,5.73835093,-3.64453880,-1,-0.9998283010568978
4.73192634e+02,3.99999961,-6.89700730e-10,3.09157660,3.66379366,1.74087812,-2.84509851,7.65121090e-05,5.74113829,-3.63618550,-1,-0.9998043325829358
4.95083922e+02,3.99999960,-6.77892433e-10,3.08712428,3.66414795,1.73794339,-2.84509851,7.65222117e-05,5.74400362,-3.62759766,-1,-0.9997792885331835
5.18026826e+02,3.99999958,-6.66186239e-10,3.08239510,3.66447540,1.73492391,-2.84509851,7.65205311e-05,5.74695269,-3.61876016,-1,-0.99975304141473
5.42064598e+02,3.99999957,-6.54107927e-10,3.07750863,3.66480602,1.73181944,-2.84509851,7.64824666e-05,5.74998483,-3.60967288,-1,-0.9997255417464647
5.67155529e+02,3.99999955,-6.41999528e-10,3.07250238,3.66514616,1.72863603,-2.84509851,7.64539494e-05,5.75309439,-3.60035355,-1,-0.9996968372442767
5.93333144e+02,3.99999953,-6.29630696e-10,3.06735986,3.66549167,1.72537374,-2.84509851,7.64002421e-05,5.75628107,-3.59080555,-1,-0.9996668895549287
6.20870317e+02,3.99999952,-6.17242478e-10,3.06215759,3.66587023,1.72201550,-2.84509851,7.63808911e-05,5.75956121,-3.58097412,-1,-0.9996353865053754
6.49571775e+02,3.99999950,-6.04853946e-10,3.05673690,3.66623261,1.71858037,-2.84509851,7.63409710e-05,5.76291686,-3.57091576,-1,-0.9996025514916425
6.79603417e+02,3.99999948,-5.92397052e-10,3.05120624,3.66661025,1.71505977,-2.84509851,7.63066802e-05,5.76635611,-3.56060618,-1,-0.999568194722119
7.11045358e+02,3.99999946,-5.79778642e-10,3.04565288,3.66702647,1.71145066,-2.84509851,7.62899706e-05,5.76988152,-3.55003951,-1,-0.9995322245437215
7.43883659e+02,3.99999944,-5.67486747e-10,3.03991921,3.66743901,1.70775873,-2.84509851,7.63062471e-05,5.77348839,-3.53922736,-1,-0.9994946569029312
7.78263601e+02,3.99999942,-5.54966384e-10,3.03401959,3.66785378,1.70397939,-2.84509851,7.62871581e-05,5.77718096,-3.52815696,-1,-0.9994553255955213
8.14210639e+02,3.99999940,-5.42452733e-10,3.02791353,3.66825865,1.70011662,-2.84509851,7.62470087e-05,5.78095602,-3.51684024,-1,-0.9994142015004879
8.51749466e+02,3.99999938,-5.29995463e-10,3.02166195,3.66866776,1.69617261,-2.84509851,7.62079333e-05,5.78481083,-3.50528497,-1,-0.9993712563685693
8.91110929e+02,3.99999936,-5.17464935e-10,3.01539429,3.66911838,1.69213753,-2.84509851,7.61920990e-05,5.78875404,-3.49346495,-1,-0.9993262261064079
9.32182297e+02,3.99999934,-5.04926197e-10,3.00886820,3.66954404,1.68802317,-2.84509851,7.61309220e-05,5.79277578,-3.48140865,-1,-0.9992792396804112
9.75139356e+02,3.99999932,-4.92460955e-10,3.00238157,3.67002254,1.68382286,-2.84509851,7.61238883e-05,5.79688066,-3.46910388,-1,-0.9992300959880527
1.02013477e+03,3.99999930,-4.80261082e-10,2.99572127,3.67050146,1.67953487,-2.84509851,7.61386863e-05,5.80107197,-3.45654044,-1,-0.9991786203788131
1.06713408e+03,3.99999928,-4.67794486e-10,2.98879367,3.67095342,1.67516716,-2.84509851,7.60570293e-05,5.80534175,-3.44373946,-1,-0.999124852274444
1.11627689e+03,3.99999926,-4.55318121e-10,2.98192311,3.67146240,1.67071390,-2.84509851,7.60160347e-05,5.80969475,-3.43068704,-1,-0.9990686319653145
1.16764791e+03,3.99999923,-4.43016820e-10,2.97473240,3.67193153,1.66618029,-2.84509851,7.59267955e-05,5.81412775,-3.41739425,-1,-0.9990098625415738
1.22135600e+03,3.99999921,-4.30995954e-10,2.96751650,3.67243520,1.66156500,-2.84509851,7.58972002e-05,5.81864096,-3.40386078,-1,-0.9989484194653119
1.27748546e+03,3.99999919,-4.19407374e-10,2.96007163,3.67292006,1.65687286,-2.84509851,7.58895854e-05,5.82323025,-3.39009964,-1,-0.9988842062957256
1.33629019e+03,3.99999916,-4.07912566e-10,2.95286562,3.67350834,1.65209329,-2.84509851,7.59938932e-05,5.82790400,-3.37608632,-1,-0.998816932566387
1.39772058e+03,3.99999914,-3.96889887e-10,2.94525893,3.67403221,1.64724220,-2.84509851,7.60730552e-05,5.83264930,-3.36185691,-1,-0.9987466550320795
1.46193354e+03,3.99999911,-3.85619064e-10,2.93758701,3.67457802,1.64231461,-2.84509850,7.60965829e-05,5.83746968,-3.34740315,-1,-0.9986731941847791
1.52906989e+03,3.99999909,-3.74462072e-10,2.92973956,3.67511725,1.63731243,-2.84509850,7.60946094e-05,5.84236350,-3.33272651,-1,-0.9985963889237282
1.59924562e+03,3.99999906,-3.63392554e-10,2.92172003,3.67564969,1.63223780,-2.84509850,7.60568010e-05,5.84732898,-3.31783430,-1,-0.998516106554161
1.67260610e+03,3.99999904,-3.52326634e-10,2.91356609,3.67618481,1.62709058,-2.84509850,7.59752225e-05,5.85236586,-3.30273163,-1,-0.9984321807700333
1.74932998e+03,3.99999901,-3.41719936e-10,2.90558752,3.67680221,1.62186650,-2.84509850,7.60483687e-05,5.85747752,-3.28740362,-1,-0.9983444071923478
1.82947314e+03,3.99999898,-3.31188418e-10,2.89720009,3.67735076,1.61657567,-2.84509850,7.60000420e-05,5.86265572,-3.27187746,-1,-0.998252721893322
1.91323773e+03,3.99999895,-3.20899671e-10,2.88870956,3.67790695,1.61121803,-2.84509850,7.59632303e-05,5.86789952,-3.25614964,-1,-0.9981568936095119
2.00090879e+03,3.99999893,-3.10731832e-10,2.88031833,3.67852389,1.60578854,-2.84509849,7.59753800e-05,5.87321383,-3.24020901,-1,-0.9980565962497372
2.09254714e+03,3.99999890,-3.00792829e-10,2.87163908,3.67910148,1.60029374,-2.84509849,7.59341685e-05,5.87859348,-3.22407245,-1,-0.9979517602347613
2.18830368e+03,3.99999887,-2.91078818e-10,2.86289712,3.67969571,1.59473430,-2.84509849,7.59103491e-05,5.88403728,-3.20774407,-1,-0.9978422129321147
2.28832879e+03,3.99999884,-2.81562130e-10,2.85397513,3.68027480,1.58911512,-2.84509849,7.58553592e-05,5.88954038,-3.19123977,-1,-0.9977277823042179
2.39299744e+03,3.99999881,-2.72206677e-10,2.84523489,3.68093303,1.58342854,-2.84509848,7.58789319e-05,5.89510939,-3.17453768,-1,-0.9976080393782605
2.50241523e+03,3.99999879,-2.63174175e-10,2.83616436,3.68153799,1.57768335,-2.84509848,7.58559006e-05,5.90073680,-3.15765823,-1,-0.9974828633458344
2.61671088e+03,3.99999876,-2.54292157e-10,2.82705091,3.68215510,1.57189240,-2.84509848,7.58184512e-05,5.90632586,-3.14079452,-1,-0.9973521069488119
2.73622508e+03,3.99999873,-2.45661494e-10,2.81788636,3.68279115,1.56603804,-2.84509848,7.58093857e-05,5.91201598,-3.12367689,-1,-0.9972153804313546
2.86116602e+03,3.99999870,-2.37175171e-10,2.80850299,3.68340122,1.56012621,-2.84509848,7.57364820e-05,5.91779998,-3.10631710,-1,-0.9970724456201435
2.99165731e+03,3.99999867,-2.28984919e-10,2.79927386,3.68408148,1.55415113,-2.84509847,7.57768395e-05,5.92365559,-3.08875339,-1,-0.9969231611029882
3.12827122e+03,3.99999864,-2.20962390e-10,2.78993051,3.68475915,1.54812411,-2.84509847,7.57868822e-05,5.92955826,-3.07104668,-1,-0.9967668721921263
3.27081690e+03,3.99999860,-2.13166344e-10,2.78031279,3.68539223,1.54204908,-2.84509847,7.57368659e-05,5.93551129,-3.05318859,-1,-0.9966037972235872
3.41996382e+03,3.99999857,-2.05555911e-10,2.77060538,3.68602837,1.53592310,-2.84509847,7.56714770e-05,5.94151726,-3.03517311,-1,-0.9964331703109601
3.57569486e+03,3.99999854,-1.98120473e-10,2.76080733,3.68666294,1.52975494,-2.84509847,7.55816860e-05,5.94756558,-3.01702798,-1,-0.9962550110398508
3.73864477e+03,3.99999851,-1.90826977e-10,2.75103533,3.68732893,1.52353696,-2.84509847,7.54951364e-05,5.95366336,-2.99873287,-1,-0.9960685932441891
3.90886356e+03,3.99999848,-1.83708113e-10,2.74122247,3.68801197,1.51726444,-2.84509847,7.54115664e-05,5.95981617,-2.98027565,-1,-0.9958738597115837
4.08671488e+03,3.99999845,-1.76857620e-10,2.73118067,3.68865752,1.51095244,-2.84509847,7.52909064e-05,5.96600845,-2.96169807,-1,-0.9956703944195198
4.27263136e+03,3.99999842,-1.70230150e-10,2.72104646,3.68930116,1.50459806,-2.84509847,7.51663987e-05,5.97224371,-2.94299259,-1,-0.9954577024310505
4.46705742e+03,3.99999838,-1.63842373e-10,2.71110006,3.69001571,1.49819576,-2.84509847,7.51465489e-05,5.97852668,-2.92414299,-1,-0.9952352753212447
4.67020468e+03,3.99999835,-1.57740531e-10,2.70095492,3.69069984,1.49175493,-2.84509847,7.51216922e-05,5.98484832,-2.90518338,-1,-0.9950028709927984
4.88245598e+03,3.99999832,-1.51798889e-10,2.69066273,3.69136436,1.48527979,-2.84509847,7.50469385e-05,5.99120446,-2.88611891,-1,-0.9947600514694716
5.10424354e+03,3.99999829,-1.46007111e-10,2.68028110,3.69202373,1.47877025,-2.84509847,7.49392307e-05,5.99759547,-2.86694735,-1,-0.9945063222833652
5.33608942e+03,3.99999825,-1.40420888e-10,2.66986103,3.69269218,1.47222330,-2.84509847,7.48474177e-05,6.00402454,-2.84765833,-1,-0.9942410861879118
5.57861238e+03,3.99999822,-1.35066800e-10,2.65960384,3.69341969,1.46563969,-2.84509847,7.48569580e-05,6.01049065,-2.82825955,-1,-0.9939636353099054
5.83191182e+03,3.99999819,-1.29803147e-10,2.64908914,3.69409757,1.45902657,-2.84509847,7.47446662e-05,6.01698748,-2.80877103,-1,-0.9936738559338556
6.09659790e+03,3.99999815,-1.24783623e-10,2.63856358,3.69478844,1.45238206,-2.84509847,7.46862220e-05,6.02351555,-2.78919168,-1,-0.9933710500251198
6.37322501e+03,3.99999812,-1.19937016e-10,2.62792054,3.69546600,1.44570542,-2.84509847,7.46051042e-05,6.03007638,-2.76951000,-1,-0.993054583350996
6.66244359e+03,3.99999809,-1.15233961e-10,2.61724483,3.69614796,1.43900364,-2.84509849,7.45100017e-05,6.03661951,-2.74970447,-1,-0.9927237117957552
6.96479326e+03,3.99999805,-1.10737494e-10,2.60680149,3.69690512,1.43226765,-2.84509850,7.45471200e-05,6.04313870,-2.72972303,-1,-0.9923778180238564
7.28055196e+03,3.99999802,-1.06382491e-10,2.59611059,3.69761207,1.42550830,-2.84509850,7.45015471e-05,6.04961997,-2.70958582,-1,-0.9920165840666543
7.61072019e+03,3.99999798,-1.02179037e-10,2.58528949,3.69829733,1.41872723,-2.84509849,7.44181116e-05,6.05606392,-2.68929313,-1,-0.9916388653331234
7.95573390e+03,3.99999795,-9.81546242e-11,2.57450610,3.69900503,1.41192015,-2.84509862,7.43871997e-05,6.06247763,-2.66882310,-1,-0.9912441630881741
8.31612691e+03,3.99999791,-9.42494087e-11,2.56359876,3.69968853,1.40509948,-2.84509849,7.42986952e-05,6.06886329,-2.64822565,-1,-0.9908318666315751
8.69299112e+03,3.99999788,-9.06046245e-11,2.55273886,3.70039157,1.39826343,-2.84509848,7.43304330e-05,6.07522293,-2.62748644,-1,-0.9904007268089632
9.08689477e+03,3.99999784,-8.70138975e-11,2.54186929,3.70109951,1.39141278,-2.84509850,7.43025679e-05,6.08156023,-2.60660407,-1,-0.9899500935429728
9.49841714e+03,3.99999781,-8.35026906e-11,2.53089705,3.70178841,1.38454886,-2.84509848,7.41986604e-05,6.08788038,-2.58558111,-1,-0.9894793041262685
9.92849153e+03,3.99999778,-8.01462424e-11,2.51993470,3.70248551,1.37767348,-2.84509848,7.41257706e-05,6.09418907,-2.56442555,-1,-0.9889872908459029
1.03778618e+04,3.99999774,-7.69156445e-11,2.50890972,3.70316938,1.37079326,-2.84509948,7.40300909e-05,6.10048934,-2.54316962,-1,-0.9884732027118907
1.08477233e+04,3.99999770,-7.38156158e-11,2.49804455,3.70389889,1.36390164,-2.84509848,7.40070697e-05,6.10678893,-2.52179139,-1,-0.9879356722211016
1.13389315e+04,3.99999767,-7.08397243e-11,2.48707670,3.70460319,1.35700913,-2.84509848,7.39488363e-05,6.11308465,-2.50032244,-1,-0.987373720699588
1.18522516e+04,3.99999763,-6.79845689e-11,2.47602447,3.70528515,1.35011909,-2.84509848,7.38613961e-05,6.11938247,-2.47878155,-1,-0.9867864727439991
1.23889788e+04,3.99999760,-6.52359441e-11,2.46513274,3.70600707,1.34322939,-2.84510615,7.38257658e-05,6.12569170,-2.45716293,-1,-0.9861724466209056
1.29499233e+04,3.99999756,-6.26238933e-11,2.45422806,3.70672251,1.33634615,-2.84509848,7.38118976e-05,6.13201775,-2.43552151,-1,-0.985530715446101
1.35361729e+04,3.99999753,-6.01065492e-11,2.44326681,3.70741640,1.32947775,-2.84509848,7.37537582e-05,6.13836155,-2.41388557,-1,-0.9848600347556998
1.41489078e+04,3.99999749,-5.76975657e-11,2.43228014,3.70809414,1.32262894,-2.84509848,7.36780594e-05,6.14472516,-2.39228285,-1,-0.9841590543784596
1.47894491e+04,3.99999746,-5.53750903e-11,2.42135674,3.70877668,1.31580216,-2.84509847,7.35928506e-05,6.15111654,-2.37073346,-1,-0.9834262629508588
1.54590206e+04,3.99999742,-5.31693441e-11,2.41045224,3.70944691,1.30900946,-2.84509847,7.35146816e-05,6.15758341,-2.34921207,-1,-0.9826602604224255
1.61595931e+04,3.99999738,-5.10580164e-11,2.39959970,3.71011041,1.30225618,-2.84509847,7.34261434e-05,6.16401534,-2.32795858,-1,-0.9818587921604837
1.68924336e+04,3.99999735,-4.90429698e-11,2.38898746,3.71081551,1.29553986,-2.84509847,7.34095607e-05,6.17046249,-2.30685710,-1,-0.9810204086929403
1.76585122e+04,3.99999731,-4.71346459e-11,2.37829367,3.71147098,1.28888203,-2.84509847,7.33475313e-05,6.17689268,-2.28599728,-1,-0.980144000206948
1.84595591e+04,3.99999727,-4.53013486e-11,2.36767872,3.71211312,1.28229026,-2.84509847,7.32508155e-05,6.18327854,-2.26537944,-1,-0.9792275873208057
1.92975075e+04,3.99999724,-4.35617078e-11,2.35740407,3.71280970,1.27575978,-2.84511061,7.32588813e-05,6.18967557,-2.24474834,-1,-0.9782689584169523
2.01739077e+04,3.99999720,-4.19224130e-11,2.34703654,3.71344252,1.26931039,-2.84509847,7.32081033e-05,6.19582559,-2.22447336,-1,-0.9772663399227073
2.10910419e+04,3.99999716,-4.03522130e-11,2.33680531,3.71406826,1.26294328,-2.84509847,7.31376503e-05,6.20181356,-2.20415362,-1,-0.9762171209578729
2.20498962e+04,3.99999712,-3.88532454e-11,2.32671028,3.71468760,1.25665709,-2.84509847,7.30605902e-05,6.20750821,-2.18385690,-1,-0.9751201734052978
2.30524296e+04,3.99999709,-3.74327151e-11,2.31681870,3.71531671,1.25045308,-2.84509847,7.30230680e-05,6.21291020,-2.16337558,-1,-0.9739732561317299
2.41019860e+04,3.99999705,-3.60849553e-11,2.30696214,3.71591117,1.24433587,-2.84509847,7.29494413e-05,6.21800744,-2.14260381,-1,-0.9727725436519824
2.51988800e+04,3.99999701,-3.48008183e-11,2.29723146,3.71649848,1.23829593,-2.84509847,7.28784951e-05,6.22269566,-2.12167907,-1,-0.9715176760576729
2.63461710e+04,3.99999697,-3.35689041e-11,2.28775696,3.71711608,1.23232347,-2.84510252,7.28503853e-05,6.22731188,-2.10016737,-1,-0.9702051533370245
2.75461166e+04,3.99999693,-3.24069311e-11,2.27831225,3.71771011,1.22641306,-2.84509847,7.28286461e-05,6.23188902,-2.07812856,-1,-0.968832392752707
2.87992214e+04,3.99999689,-3.12906222e-11,2.26894109,3.71829549,1.22055672,-2.84509847,7.27951005e-05,6.23645605,-2.05562618,-1,-0.9673988170327252
3.01119282e+04,3.99999685,-3.02234652e-11,2.25979309,3.71891070,1.21475229,-2.84509847,7.28164835e-05,6.24109823,-2.03267894,-1,-0.9658970554913642
3.14826344e+04,3.99999681,-2.92030751e-11,2.25066603,3.71950822,1.20899372,-2.84509847,7.28280522e-05,6.24586040,-2.00934348,-1,-0.9643289415334985
3.29165298e+04,3.99999677,-2.82223618e-11,2.24159839,3.72009580,1.20328474,-2.84509847,7.28237969e-05,6.25076932,-1.98566456,-1,-0.96268853792924
3.44159511e+04,3.99999673,-2.72843371e-11,2.23272461,3.72071006,1.19761933,-2.84509847,7.28771379e-05,6.25583465,-1.96164359,-1,-0.9609731714493546
3.59826218e+04,3.99999669,-2.63893432e-11,2.22394111,3.72132784,1.19199203,-2.84509847,7.29579722e-05,6.26106108,-1.93725797,-1,-0.9591808703770685
3.76225220e+04,3.99999664,-2.55322424e-11,2.21522145,3.72193979,1.18640830,-2.84509847,7.30424845e-05,6.26646826,-1.91248640,-1,-0.9573047933642653
3.93360895e+04,3.99999660,-2.47098792e-11,2.20677697,3.72260279,1.18086005,-2.84509847,7.32193977e-05,6.27207131,-1.88726674,-1,-0.9553444395594201
4.11271561e+04,3.99999656,-2.39279174e-11,2.19829103,3.72323437,1.17535393,-2.84509847,7.33799740e-05,6.27784112,-1.86163775,-1,-0.9532954253104678
4.30019596e+04,3.99999651,-2.31779190e-11,2.19007239,3.72391282,1.16988771,-2.84509848,7.36255347e-05,6.28370579,-1.83583726,-1,-0.9511506144555921
4.49605463e+04,3.99999647,-2.24591239e-11,2.18184701,3.72456913,1.16446241,-2.84509848,7.38530356e-05,6.28973592,-1.80969228,-1,-0.9489099540267124
4.70079996e+04,3.99999643,-2.17682948e-11,2.17375082,3.72523722,1.15907811,-2.84509848,7.41092518e-05,6.29592589,-1.78318677,-1,-0.9465676285175637
4.91505818e+04,3.99999638,-2.11053945e-11,2.16578720,3.72591702,1.15373670,-2.84509848,7.43953559e-05,6.30228814,-1.75628038,-1,-0.9441164737378637
5.13899300e+04,3.99999633,-2.04714585e-11,2.15802122,3.72662485,1.14843806,-2.84509848,7.47488566e-05,6.30882429,-1.72897087,-1,-0.9415546168140813
5.37304964e+04,3.99999629,-1.98697171e-11,2.15036317,3.72733534,1.14318806,-2.84509848,7.51446596e-05,6.31553783,-1.70124311,-1,-0.9388769643447545
5.61775635e+04,3.99999624,-1.92924598e-11,2.14286275,3.72805733,1.13799387,-2.84509848,7.55725546e-05,6.32243077,-1.67309299,-1,-0.9360774730494325
5.87381982e+04,3.99999619,-1.87424201e-11,2.13561000,3.72880938,1.13286339,-2.84509848,7.60757696e-05,6.32950849,-1.64448987,-1,-0.9331480582601325
6.14150053e+04,3.99999614,-1.82220223e-11,2.12855325,3.72957428,1.12780521,-2.84509848,7.66408778e-05,6.33676511,-1.61542957,-1,-0.9300857400361221
6.42136357e+04,3.99999609,-1.77283281e-11,2.12175574,3.73036177,1.12283149,-2.84509848,7.72762306e-05,6.34420657,-1.58589066,-1,-0.926884053640345
6.71397677e+04,3.99999604,-1.72618717e-11,2.11520870,3.73116143,1.11795864,-2.84509848,7.79700067e-05,6.35183902,-1.55586083,-1,-0.9235365029896239
7.01997641e+04,3.99999599,-1.68263791e-11,2.10909837,3.73201330,1.11319974,-2.84509848,7.88111348e-05,6.35967001,-1.52531536,-1,-0.920035808919765
7.33998655e+04,3.99999594,-1.64194212e-11,2.10328287,3.73286874,1.10858111,-2.84509848,7.97093849e-05,6.36770257,-1.49423936,-1,-0.9163748320656985
7.67462203e+04,3.99999588,-1.60432591e-11,2.09789027,3.73374674,1.10412881,-2.84509848,8.07098244e-05,6.37593286,-1.46260458,-1,-0.9125465385409074
8.02458602e+04,3.99999583,-1.56992253e-11,2.09300256,3.73465230,1.09987383,-2.84509848,8.18313910e-05,6.38437158,-1.43038442,-1,-0.9085428839468787
8.39057548e+04,3.99999577,-1.53911346e-11,2.08887819,3.73563308,1.09585009,-2.84509848,8.31814269e-05,6.39302821,-1.39755101,-1,-0.9043558949286796
8.77332764e+04,3.99999571,-1.51260688e-11,2.08530315,3.73661501,1.09209871,-2.84509848,8.46730140e-05,6.40191596,-1.36406989,-1,-0.8999771374349202
9.17352065e+04,3.99999565,-1.48989172e-11,2.08256240,3.73764060,1.08867716,-2.84509848,8.63538626e-05,6.41103844,-1.32990663,-1,-0.895398853300645
9.59186969e+04,3.99999559,-1.47176160e-11,2.08079480,3.73871365,1.08564726,-2.84509848,8.82769924e-05,6.42042078,-1.29502243,-1,-0.8906128607306564
1.00290375e+05,3.99999553,-1.45918479e-11,2.08017737,3.73984282,1.08308021,-2.84509848,9.05182636e-05,6.43007357,-1.25938791,-1,-0.8856115778533296
1.04855160e+05,3.99999546,-1.45267552e-11,2.08091455,3.74103788,1.08105867,-2.84509848,9.31300806e-05,6.44001429,-1.22295818,-1,-0.8803893770103217
1.09617084e+05,3.99999539,-1.45330004e-11,2.08322939,3.74230458,1.07968270,-2.84509849,9.61910420e-05,6.45026139,-1.18569226,-1,-0.8749416454025595
1.14574223e+05,3.99999532,-1.46287472e-11,2.08749723,3.74369184,1.07904208,-2.84509849,9.99297824e-05,6.46082784,-1.14758945,-1,-0.8692705841226291
