star_age,star_mass,star_mdot,log_L,log_Teff,log_R,log_surf_z,v_wind_Km_per_s,log_center_T,log_center_Rho,phase,x
1.91105887e+02,6.79999957,-1.94334588e-09,3.53064153,3.65295768,1.98208255,-2.84509848,7.10566624e-05,5.71613321,-4.13097171,-1,-1.0
1.99452968e+02,6.79999956,-1.92137235e-09,3.52766533,3.65314583,1.98021815,-2.84509848,7.09250821e-05,5.71797950,-4.12543455,-1,-0.9999696978905864
2.08125795e+02,6.79999954,-1.89891435e-09,3.52457265,3.65333129,1.97830089,-2.84509848,7.07818759e-05,5.71987821,-4.11974035,-1,-0.9999382132371274
2.17163840e+02,6.79999953,-1.87660470e-09,3.52136064,3.65351579,1.97632589,-2.84509848,7.06522032e-05,5.72183411,-4.11387500,-1,-0.9999054027458342
2.26578890e+02,6.79999951,-1.85426836e-09,3.51807938,3.65371227,1.97429231,-2.84509848,7.05376795e-05,5.72384775,-4.10783621,-1,-0.9998712236267823
2.36390596e+02,6.79999949,-1.83132962e-09,3.51474890,3.65392673,1.97219815,-2.84509848,7.04205362e-05,5.72592098,-4.10161754,-1,-0.99983560454165
2.46547772e+02,6.79999947,-1.80821641e-09,3.51248460,3.65444645,1.97002656,-2.84509848,7.14510384e-05,5.72804704,-4.09524039,-1,-0.9997987313091409
2.56199981e+02,6.79999945,-1.78655814e-09,3.52592534,3.65902447,1.96759088,-2.84509848,8.73030749e-05,5.73012918,-4.08900686,-1,-0.9997636912402592
2.67135223e+02,6.79999943,-1.83760704e-09,3.52551682,3.66012957,1.96517641,-2.84509848,9.36817454e-05,5.73246576,-4.08200082,-1,-0.9997239934225972
2.78744534e+02,6.79999941,-1.81436692e-09,3.52182922,3.66044326,1.96270524,-2.84509848,9.38761400e-05,5.73491109,-4.07466596,-1,-0.9996818485563693
2.90834957e+02,6.79999939,-1.78932932e-09,3.51785859,3.66071805,1.96017035,-2.84509848,9.39399073e-05,5.73742089,-4.06713753,-1,-0.9996379571264667
3.03430357e+02,6.79999937,-1.76426455e-09,3.51379615,3.66100287,1.95756948,-2.84509848,9.40256827e-05,5.73999554,-4.05941411,-1,-0.9995922324966342
3.16555778e+02,6.79999935,-1.73810940e-09,3.50962070,3.66129319,1.95490112,-2.84509848,9.40697585e-05,5.74263695,-4.05148937,-1,-0.9995445837505347
3.30269793e+02,6.79999932,-1.71092094e-09,3.50532491,3.66159003,1.95215954,-2.84509848,9.40753431e-05,5.74535130,-4.04334695,-1,-0.9994947982527026
3.44596760e+02,6.79999930,-1.68310984e-09,3.50099717,3.66191647,1.94934280,-2.84509848,9.40937513e-05,5.74813909,-4.03498453,-1,-0.9994427875771624
3.59527368e+02,6.79999927,-1.65478324e-09,3.49650642,3.66223746,1.94645544,-2.84509848,9.40803895e-05,5.75099723,-4.02640980,-1,-0.9993885855253042
3.75083792e+02,6.79999925,-1.62574987e-09,3.49196638,3.66258228,1.94349579,-2.84509848,9.40628933e-05,5.75392624,-4.01762302,-1,-0.9993321115960189
3.91281150e+02,6.79999922,-1.59748478e-09,3.48727663,3.66292491,1.94046564,-2.84509848,9.40897634e-05,5.75692517,-4.00862632,-1,-0.9992733109069725
4.08225483e+02,6.79999920,-1.56874148e-09,3.48253438,3.66329454,1.93735527,-2.84509848,9.41281758e-05,5.76000344,-3.99939400,-1,-0.9992117985013176
4.25895736e+02,6.79999917,-1.53973989e-09,3.47755918,3.66364246,1.93417183,-2.84509848,9.41206826e-05,5.76315436,-3.98994076,-1,-0.9991476508142673
4.44277738e+02,6.79999914,-1.51070171e-09,3.47246379,3.66399519,1.93091867,-2.84509848,9.41156521e-05,5.76637416,-3.98028349,-1,-0.9990809192902956
4.63488604e+02,6.79999911,-1.48157536e-09,3.46721504,3.66434827,1.92758814,-2.84509848,9.41019958e-05,5.76967069,-3.97039451,-1,-0.9990111787710096
4.83530373e+02,6.79999908,-1.45194703e-09,3.46204051,3.66475876,1.92417989,-2.84509848,9.41352141e-05,5.77304253,-3.96028065,-1,-0.9989384218543008
5.04366340e+02,6.79999905,-1.42287338e-09,3.45670481,3.66516417,1.92070123,-2.84509848,9.41919933e-05,5.77648415,-3.94995722,-1,-0.9988627817890167
5.26188723e+02,6.79999902,-1.39327106e-09,3.45111019,3.66554549,1.91714126,-2.84509848,9.41693701e-05,5.78000691,-3.93939018,-1,-0.9987835607730314
5.48850234e+02,6.79999899,-1.36407993e-09,3.44553713,3.66596635,1.91351301,-2.84509848,9.42234817e-05,5.78359620,-3.92862316,-1,-0.9987012935007
5.72578412e+02,6.79999896,-1.33474113e-09,3.43973810,3.66637136,1.90980348,-2.84509848,9.42317462e-05,5.78726642,-3.91761293,-1,-0.9986151539453344
5.97220896e+02,6.79999893,-1.30525802e-09,3.43381511,3.66677882,1.90602706,-2.84509848,9.42203142e-05,5.79100280,-3.90640242,-1,-0.9985256952176199
6.23015521e+02,6.79999889,-1.27588571e-09,3.42778600,3.66720021,1.90216974,-2.84509848,9.42198032e-05,5.79481917,-3.89495357,-1,-0.998432053913668
6.49847814e+02,6.79999886,-1.24674354e-09,3.42178831,3.66766521,1.89824090,-2.84509848,9.42853129e-05,5.79870514,-3.88329500,-1,-0.9983346456007136
6.77838376e+02,6.79999883,-1.21769820e-09,3.41573109,3.66815444,1.89423382,-2.84509848,9.43779613e-05,5.80266790,-3.87140594,-1,-0.9982330324652628
7.07057731e+02,6.79999879,-1.18921807e-09,3.40933819,3.66859511,1.89015602,-2.84509848,9.44156746e-05,5.80670199,-3.85930366,-1,-0.9981269584865625
7.37482661e+02,6.79999876,-1.16066100e-09,3.40286194,3.66905056,1.88600700,-2.84509848,9.44471513e-05,5.81080609,-3.84698848,-1,-0.998016507952087
7.69177132e+02,6.79999872,-1.13221302e-09,3.39641410,3.66954988,1.88178445,-2.84509848,9.45308406e-05,5.81498194,-3.83445921,-1,-0.9979014486483558
8.02297280e+02,6.79999868,-1.10399090e-09,3.38967863,3.67001402,1.87748843,-2.84509848,9.45468037e-05,5.81923129,-3.82171008,-1,-0.9977812137604364
8.36806878e+02,6.79999865,-1.07614225e-09,3.38280982,3.67047881,1.87312444,-2.84509848,9.45637563e-05,5.82354792,-3.80875979,-1,-0.9976559348019101
8.72771999e+02,6.79999861,-1.04836497e-09,3.37604781,3.67100638,1.86868830,-2.84509848,9.46541125e-05,5.82793448,-3.79559990,-1,-0.9975253719103299
9.10252093e+02,6.79999857,-1.02081927e-09,3.36904894,3.67150792,1.86418579,-2.84509848,9.46869449e-05,5.83238729,-3.78224150,-1,-0.9973893092664883
9.49318035e+02,6.79999853,-9.93811544e-10,3.36188426,3.67200224,1.85961481,-2.84509848,9.47176975e-05,5.83690786,-3.76867952,-1,-0.9972474895754097
9.90073621e+02,6.79999849,-9.67581435e-10,3.35484816,3.67256494,1.85497135,-2.84509848,9.48957277e-05,5.84149884,-3.75490274,-1,-0.9970995360301899
1.03257819e+03,6.79999845,-9.40898131e-10,3.34761340,3.67311127,1.85026131,-2.84509848,9.49575175e-05,5.84615603,-3.74092805,-1,-0.9969452332145811
1.07686133e+03,6.79999841,-9.14840701e-10,3.34005847,3.67360827,1.84548984,-2.84509848,9.49530622e-05,5.85086320,-3.72675215,-1,-0.9967844737163257
1.12303907e+03,6.79999837,-8.89056339e-10,3.33260384,3.67416390,1.84065127,-2.84509854,9.50235994e-05,5.85559684,-3.71233267,-1,-0.9966168363194978
1.17116212e+03,6.79999833,-8.64007934e-10,3.32494158,3.67469850,1.83575094,-2.84509856,9.50858036e-05,5.86035281,-3.69767645,-1,-0.9964421369333992
1.22133055e+03,6.79999828,-8.39192346e-10,3.31724827,3.67525675,1.83078778,-2.84509855,9.51583445e-05,5.86513223,-3.68277822,-1,-0.9962600122774905
1.27361899e+03,6.79999824,-8.14689219e-10,3.30946116,3.67582168,1.82576437,-2.84509855,9.52197548e-05,5.86993274,-3.66763871,-1,-0.9960701914251535
1.32810876e+03,6.79999820,-7.90803097e-10,3.30147227,3.67636439,1.82068450,-2.84509856,9.52548642e-05,5.87475272,-3.65226574,-1,-0.9958723791633028
1.38497057e+03,6.79999815,-7.67081255e-10,3.29365595,3.67698161,1.81554192,-2.84509858,9.53709180e-05,5.87959858,-3.63663849,-1,-0.9956659557695352
1.44421512e+03,6.79999811,-7.44100927e-10,3.28545160,3.67752767,1.81034760,-2.84509859,9.53921779e-05,5.88446342,-3.62078008,-1,-0.9954508824000233
1.50596734e+03,6.79999807,-7.21509266e-10,3.27726492,3.67810490,1.80509981,-2.84509859,9.54480500e-05,5.88934785,-3.60468480,-1,-0.9952267055258596
1.57031618e+03,6.79999802,-6.99091210e-10,3.26897067,3.67868046,1.79980157,-2.84509859,9.54508696e-05,5.89425209,-3.58835524,-1,-0.9949931022350426
1.63736677e+03,6.79999797,-6.77452106e-10,3.26056993,3.67925357,1.79445498,-2.84509859,9.54807458e-05,5.89917532,-3.57179170,-1,-0.9947496908778957
1.70728447e+03,6.79999793,-6.56599045e-10,3.25255630,3.67995195,1.78905141,-2.84509863,9.57643951e-05,5.90412646,-3.55497566,-1,-0.9944958711539291
1.78018439e+03,6.79999788,-6.35924597e-10,3.24398921,3.68053286,1.78360603,-2.84509860,9.57926486e-05,5.90909712,-3.53792689,-1,-0.9942312251834299
1.85615438e+03,6.79999783,-6.15730102e-10,3.23539596,3.68112842,1.77811829,-2.84509861,9.58360900e-05,5.91408596,-3.52064535,-1,-0.9939554340476869
1.93530626e+03,6.79999779,-5.95944023e-10,3.22679162,3.68174251,1.77258795,-2.84509863,9.58925750e-05,5.91909555,-3.50312871,-1,-0.9936680918105564
2.01777527e+03,6.79999774,-5.76675371e-10,3.21822585,3.68238668,1.76701671,-2.84509867,9.59989372e-05,5.92412665,-3.48537653,-1,-0.9933687075151063
2.10385298e+03,6.79999769,-5.57883400e-10,3.20948889,3.68300634,1.76140892,-2.84509868,9.60485818e-05,5.92908910,-3.46755817,-1,-0.993056222685201
2.19349121e+03,6.79999764,-5.39813631e-10,3.20068396,3.68362629,1.75576655,-2.84509867,9.61333128e-05,5.93414289,-3.44934663,-1,-0.9927308122269702
2.28684459e+03,6.79999759,-5.21436524e-10,3.19172868,3.68422434,1.75009281,-2.84509865,9.60298341e-05,5.93922811,-3.43092998,-1,-0.9923919147926591
2.38429845e+03,6.79999754,-5.03929252e-10,3.18312590,3.68493065,1.74437880,-2.84509872,9.61761331e-05,5.94435437,-3.41225562,-1,-0.9920381315325595
2.48579091e+03,6.79999749,-4.87000288e-10,3.17417925,3.68556517,1.73863644,-2.84509866,9.62068235e-05,5.94950691,-3.39334550,-1,-0.9916696870874208
2.59156700e+03,6.79999744,-4.70722051e-10,3.16520095,3.68620430,1.73286904,-2.84509865,9.62730291e-05,5.95468257,-3.37421228,-1,-0.9912856919336035
2.70181189e+03,6.79999739,-4.54897385e-10,3.15620963,3.68685250,1.72707697,-2.84509863,9.63457936e-05,5.95988253,-3.35484183,-1,-0.9908854738550837
2.81669662e+03,6.79999734,-4.39585149e-10,3.14712168,3.68748588,1.72126624,-2.84509861,9.63954690e-05,5.96510416,-3.33525114,-1,-0.9904684119314713
2.93646735e+03,6.79999729,-4.24944417e-10,3.13810769,3.68814756,1.71543588,-2.84509859,9.65397593e-05,5.97035075,-3.31543301,-1,-0.990033612536928
3.06133623e+03,6.79999724,-4.11290625e-10,3.12899022,3.68878805,1.70959617,-2.84509858,9.67662974e-05,5.97561738,-3.29539647,-1,-0.9895803055109016
3.19145222e+03,6.79999718,-3.97544522e-10,3.11999008,3.68946436,1.70374348,-2.84509864,9.69357441e-05,5.98091268,-3.27514629,-1,-0.9891079500892356
3.32711661e+03,6.79999713,-3.83997373e-10,3.11090512,3.69012489,1.69787993,-2.84509857,9.70145735e-05,5.98623744,-3.25466720,-1,-0.9886154525096258
3.46840927e+03,6.79999708,-3.71043192e-10,3.10175062,3.69077049,1.69201149,-2.84509854,9.71046424e-05,5.99158915,-3.23397122,-1,-0.98810252282287
3.61582897e+03,6.79999703,-3.58454813e-10,3.09268220,3.69144125,1.68613575,-2.84509852,9.72228622e-05,5.99697028,-3.21303657,-1,-0.987567350362088
3.76935192e+03,6.79999697,-3.46184895e-10,3.08366714,3.69212718,1.68025637,-2.84509898,9.73436414e-05,6.00238369,-3.19187577,-1,-0.9870100214912653
3.92949509e+03,6.79999692,-3.34545473e-10,3.07450680,3.69277531,1.67437994,-2.84509850,9.74526177e-05,6.00782865,-3.17049415,-1,-0.9864286594727133
4.09636389e+03,6.79999686,-3.23326110e-10,3.06567241,3.69350717,1.66849902,-2.84509853,9.77326723e-05,6.01331138,-3.14887228,-1,-0.9858228816402815
4.27035566e+03,6.79999681,-3.12389037e-10,3.05658274,3.69417025,1.66262803,-2.84509851,9.78485276e-05,6.01882798,-3.12702436,-1,-0.9851912455447887
4.45158412e+03,6.79999675,-3.01858750e-10,3.04750585,3.69483053,1.65676902,-2.84509850,9.79706041e-05,6.02437829,-3.10495608,-1,-0.9845333383525889
4.64064301e+03,6.79999670,-2.91647431e-10,3.03856334,3.69551870,1.65092143,-2.84509849,9.81281838e-05,6.02997065,-3.08264556,-1,-0.9838470046306099
4.83758962e+03,6.79999664,-2.81838057e-10,3.02951729,3.69617161,1.64509258,-2.84509849,9.82331825e-05,6.03560027,-3.06011194,-1,-0.9831320364010153
5.04303523e+03,6.79999658,-2.72394848e-10,3.02084773,3.69691101,1.63927900,-2.84509945,9.85131865e-05,6.04127761,-3.03732685,-1,-0.9823862145558985
5.25717434e+03,6.79999653,-2.63475122e-10,3.01205064,3.69760858,1.63348531,-2.84509848,9.87838395e-05,6.04700419,-3.01430536,-1,-0.9816088330088707
5.48022107e+03,6.79999647,-2.54809582e-10,3.00321163,3.69828048,1.62772200,-2.84509848,9.89828777e-05,6.05277697,-2.99106033,-1,-0.9807991144477592
5.71297612e+03,6.79999641,-2.46396132e-10,2.99443048,3.69894973,1.62199293,-2.84509848,9.91495016e-05,6.05859894,-2.96756936,-1,-0.979954152120011
5.95546908e+03,6.79999635,-2.38283116e-10,2.98594096,3.69967659,1.61629445,-2.84509999,9.94323514e-05,6.06447799,-2.94382644,-1,-0.9790738386061081
6.20843385e+03,6.79999629,-2.30641360e-10,2.97735609,3.70035816,1.61063887,-2.84509848,9.96982406e-05,6.07041493,-2.91984150,-1,-0.9781555096551466
6.47214457e+03,6.79999624,-2.23249764e-10,2.96897480,3.70106922,1.60502612,-2.84509848,1.00012667e-04,6.07641565,-2.89560383,-1,-0.977198170066496
6.74689887e+03,6.79999618,-2.16206431e-10,2.96067282,3.70177462,1.59946433,-2.84509848,1.00353691e-04,6.08248283,-2.87111870,-1,-0.9762007393646194
7.03362228e+03,6.79999611,-2.09444300e-10,2.95239235,3.70245527,1.59396279,-2.84509848,1.00650657e-04,6.08861987,-2.84637735,-1,-0.9751598576310824
7.33246145e+03,6.79999605,-2.02979315e-10,2.94424638,3.70313684,1.58852666,-2.84509848,1.00972080e-04,6.09483163,-2.82138522,-1,-0.9740749924876384
7.64391164e+03,6.79999599,-1.96809644e-10,2.93637057,3.70385247,1.58315749,-2.84509848,1.01393024e-04,6.10112346,-2.79614057,-1,-0.972944346009635
7.96905253e+03,6.79999593,-1.90925629e-10,2.92856006,3.70454268,1.57787182,-2.84509848,1.01782259e-04,6.10750359,-2.77063934,-1,-0.9717639986734095
8.30794002e+03,6.79999587,-1.85342908e-10,2.92094299,3.70523700,1.57267465,-2.84509848,1.02221272e-04,6.11397804,-2.74488684,-1,-0.9705337475471927
8.66124844e+03,6.79999580,-1.80016784e-10,2.91371190,3.70598282,1.56756745,-2.84509847,1.02792729e-04,6.12055535,-2.71886699,-1,-0.9692511446349197
9.02978053e+03,6.79999574,-1.74863998e-10,2.90651958,3.70668470,1.56256754,-2.84509847,1.03247367e-04,6.12724307,-2.69258852,-1,-0.9679132757782986
9.41420457e+03,6.79999567,-1.70090286e-10,2.89957881,3.70738885,1.55768885,-2.84509847,1.03805605e-04,6.13404548,-2.66605356,-1,-0.9665177149443627
9.81529656e+03,6.79999560,-1.65652084e-10,2.89302855,3.70812514,1.55294115,-2.84509847,1.04517252e-04,6.14097867,-2.63927193,-1,-0.9650616450480852
1.02336529e+04,6.79999554,-1.61495404e-10,2.88670994,3.70884300,1.54834613,-2.84509847,1.05244039e-04,6.14804772,-2.61228705,-1,-0.9635429009998911
1.06701057e+04,6.79999547,-1.57604077e-10,2.88069697,3.70955271,1.54392021,-2.84509847,1.06002024e-04,6.15526371,-2.58511022,-1,-0.9619584620206285
1.11253455e+04,6.79999540,-1.54053531e-10,2.87510226,3.71027549,1.53967731,-2.84509847,1.06896362e-04,6.16263256,-2.55771597,-1,-0.9603058212676496
1.16005964e+04,6.79999532,-1.50807541e-10,2.87018481,3.71106765,1.53563425,-2.84509848,1.08036776e-04,6.17017059,-2.53015509,-1,-0.958580534934535
1.20962820e+04,6.79999525,-1.47773406e-10,2.86547955,3.71179843,1.53182007,-2.84509847,1.09065222e-04,6.17791395,-2.50240044,-1,-0.956781065241365
1.26135907e+04,6.79999517,-1.45099507e-10,2.86140144,3.71255672,1.52826442,-2.84509847,1.10290879e-04,6.18581651,-2.47461973,-1,-0.9549030979821523
1.31534772e+04,6.79999510,-1.42750891e-10,2.85786447,3.71330456,1.52500026,-2.84509847,1.11603566e-04,6.19391477,-2.44684175,-1,-0.9529431673436556
1.37169155e+04,6.79999502,-1.40750136e-10,2.85501053,3.71406340,1.52205561,-2.84509847,1.13074065e-04,6.20220756,-2.41910159,-1,-0.9508977374485341
1.43050747e+04,6.79999493,-1.39137499e-10,2.85284397,3.71481344,1.51947225,-2.84509847,1.14687620e-04,6.21072639,-2.39134012,-1,-0.9487625641548998
1.49186390e+04,6.79999485,-1.37856967e-10,2.85157012,3.71559314,1.51727593,-2.84509847,1.16496124e-04,6.21930675,-2.36377135,-1,-0.94653516363598
1.55586214e+04,6.79999476,-1.37040386e-10,2.85117323,3.71638214,1.51549949,-2.84509847,1.18565330e-04,6.22795291,-2.33622978,-1,-0.9442118584341299
1.62259176e+04,6.79999467,-1.36625887e-10,2.85168126,3.71716995,1.51417788,-2.84509847,1.20816247e-04,6.23655761,-2.30862023,-1,-0.9417893969216964
1.69212197e+04,6.79999458,-1.36668780e-10,2.85319463,3.71797216,1.51333014,-2.84509848,1.23344543e-04,6.24506080,-2.28063458,-1,-0.9392652665928197
1.76453739e+04,6.79999448,-1.37215543e-10,2.85582028,3.71880013,1.51298703,-2.84509848,1.26223380e-04,6.25329988,-2.25221613,-1,-0.9366363955179251
1.83993546e+04,6.79999437,-1.38286679e-10,2.85956770,3.71964720,1.51316661,-2.84509848,1.29463746e-04,6.26120629,-2.22328007,-1,-0.9338992463675663
1.91829092e+04,6.79999426,-1.39943525e-10,2.86453592,3.72052898,1.51388715,-2.84509848,1.33171574e-04,6.26915749,-2.19324336,-1,-0.9310547361464827
1.99965546e+04,6.79999415,-1.42261022e-10,2.87089868,3.72146954,1.51518742,-2.84509848,1.37489279e-04,6.27723767,-2.16229848,-1,-0.9281009883711042
2.08401990e+04,6.79999403,-1.45306324e-10,2.87861931,3.72244881,1.51708919,-2.84509848,1.42425920e-04,6.28561442,-2.13035129,-1,-0.9250383362996851
2.17135541e+04,6.79999390,-1.49193703e-10,2.88786740,3.72348295,1.51964495,-2.84509848,1.48135570e-04,6.29439971,-2.09748140,-1,-0.9218678265373974
2.26158561e+04,6.79999376,-1.54063010e-10,2.89881478,3.72459555,1.52289344,-2.84509848,1.54832074e-04,6.30367012,-2.06380515,-1,-0.9185922318800447
2.35460825e+04,6.79999361,-1.59958689e-10,2.91146422,3.72580578,1.52679771,-2.84509848,1.62674468e-04,6.31345083,-2.02930836,-1,-0.9152152642727819
2.45036756e+04,6.79999346,-1.66975896e-10,2.92573715,3.72714297,1.53125979,-2.84509848,1.71973659e-04,6.32378473,-1.99391022,-1,-0.9117389483139591
2.54883019e+04,6.79999329,-1.75022041e-10,2.94136458,3.72864646,1.53606652,-2.84509848,1.83008884e-04,6.33471836,-1.95744771,-1,-0.9081644946966901
2.65026304e+04,6.79999310,-1.83652511e-10,2.95781374,3.73036254,1.54085895,-2.84509848,1.95908370e-04,6.34623571,-1.91990303,-1,-0.9044822142457983
2.75502212e+04,6.79999291,-1.92896433e-10,2.97453015,3.73234129,1.54525964,-2.84509848,2.11469560e-04,6.35823171,-1.88154349,-1,-0.900679182857669
2.86334929e+04,6.79999269,-2.02272643e-10,2.99101296,3.73464834,1.54888696,-2.84509848,2.30218887e-04,6.37084418,-1.84201878,-1,-0.8967466203752835
2.97543545e+04,6.79999246,-2.11317152e-10,3.00691072,3.73731974,1.55149303,-2.84509848,2.52649430e-04,6.38408222,-1.80127837,-1,-0.8926775966242646
3.09108112e+04,6.79999221,-2.19780115e-10,3.02209551,3.74046695,1.55279101,-2.84509848,2.80207793e-04,6.39787598,-1.75939416,-1,-0.8884793532556589
3.20983087e+04,6.79999194,-2.27233715e-10,3.03637872,3.74422756,1.55241139,-2.84509849,3.14830915e-04,6.41211053,-1.71653830,-1,-0.8841684235817584
3.33054101e+04,6.79999166,-2.33124480e-10,3.04949264,3.74885270,1.54971808,-2.84509849,3.60193029e-04,6.42658675,-1.67326592,-1,-0.8797863265713085
3.45100002e+04,6.79999138,-2.36645072e-10,3.06107826,3.75463009,1.54395609,-2.84509851,4.21456097e-04,6.44100058,-1.63035353,-1,-0.8754133462433695
3.57052150e+04,6.79999110,-2.37822796e-10,3.07118142,3.76137153,1.53552480,-2.84509856,5.01222388e-04,6.45520843,-1.58809337,-1,-0.8710744007314801
3.68915228e+04,6.79999081,-2.37032777e-10,3.07992136,3.76885264,1.52493255,-2.84509869,6.02949062e-04,6.46918239,-1.54650212,-1,-0.8667677899829105
3.80598272e+04,6.79999054,-2.34403871e-10,3.08733235,3.77702966,1.51228401,-2.84509895,7.33559391e-04,6.48278324,-1.50591153,-1,-0.862526536333022
3.92278579e+04,6.79999027,-2.30395637e-10,3.09361441,3.78560648,1.49827140,-2.84509930,8.97403588e-04,6.49621272,-1.46574056,-1,-0.8582862762864478
4.04183194e+04,6.79999000,-2.25554998e-10,3.09894430,3.79432663,1.48349604,-2.84509973,1.09890144e-03,6.50969579,-1.42533503,-1,-0.8539645865094285
4.16377686e+04,6.79998973,-2.20095092e-10,3.10345901,3.80311930,1.46816807,-2.84510214,1.34039066e-03,6.52326076,-1.38445961,-1,-0.8495376637225645
4.28886579e+04,6.79998945,-2.14227896e-10,3.10735120,3.81195539,1.45244198,-2.84510880,1.62522285e-03,6.53694334,-1.34299105,-1,-0.8449966050659066
4.41758340e+04,6.79998918,-2.08110010e-10,3.11068102,3.82080257,1.43641252,-2.84512198,1.97511495e-03,6.55072625,-1.30102266,-1,-0.8403238157379076
