star_age,star_mass,star_mdot,log_L,log_Teff,log_R,log_surf_z,v_wind_Km_per_s,log_center_T,log_center_Rho,phase,x
1.76332877e+02,7.99999939,-2.52767319e-09,3.65311323,3.65241898,2.04439581,-2.84509848,7.56844760e-05,5.71793055,-4.24642300,-1,-1.0
1.83825305e+02,7.99999937,-2.49994913e-09,3.65017292,3.65261202,2.04253958,-2.84509848,7.55699650e-05,5.71977743,-4.24088194,-1,-0.9999621104448121
1.91596989e+02,7.99999936,-2.47133338e-09,3.64707791,3.65279108,2.04063395,-2.84509848,7.54266064e-05,5.72167382,-4.23519348,-1,-0.9999228086791067
1.99678829e+02,7.99999934,-2.44193826e-09,3.64396099,3.65299231,2.03867303,-2.84509848,7.52833327e-05,5.72362485,-4.22934125,-1,-0.9998819384401534
2.08092562e+02,7.99999932,-2.41235607e-09,3.64081238,3.65321451,2.03665432,-2.84509848,7.51577561e-05,5.72563295,-4.22331704,-1,-0.9998393898029373
2.16855439e+02,7.99999929,-2.38313159e-09,3.63746187,3.65341507,2.03457794,-2.84509848,7.50368933e-05,5.72769880,-4.21711879,-1,-0.9997950755283528
2.25927524e+02,7.99999927,-2.35288484e-09,3.63509171,3.65389757,2.03242788,-2.84509848,7.59516335e-05,5.72981714,-4.21076558,-1,-0.9997491975746003
2.34492394e+02,7.99999925,-2.32522296e-09,3.64839324,3.65842679,2.03002020,-2.84509848,9.28102330e-05,5.73187698,-4.20459908,-1,-0.9997058846305797
2.44237302e+02,7.99999923,-2.39164036e-09,3.64794610,3.65950811,2.02763399,-2.84509848,9.93590344e-05,5.73419920,-4.19763571,-1,-0.9996566041797743
2.54562760e+02,7.99999921,-2.36080187e-09,3.64438356,3.65983755,2.02519383,-2.84509848,9.95511074e-05,5.73662526,-4.19035789,-1,-0.9996043878607478
2.65295495e+02,7.99999918,-2.32935266e-09,3.64049142,3.66011394,2.02269499,-2.84509848,9.96542886e-05,5.73911106,-4.18290061,-1,-0.9995501119230812
2.76465568e+02,7.99999915,-2.29738440e-09,3.63649857,3.66039654,2.02013337,-2.84509848,9.97545717e-05,5.74165932,-4.17525398,-1,-0.999493624346906
2.88094672e+02,7.99999913,-2.26388557e-09,3.63240074,3.66068520,2.01750713,-2.84509848,9.98065542e-05,5.74427162,-4.16741589,-1,-0.9994348154297173
3.00230377e+02,7.99999910,-2.22900131e-09,3.62819311,3.66098126,2.01481118,-2.84509848,9.98162874e-05,5.74695286,-4.15936984,-1,-0.9993734446078233
3.12892052e+02,7.99999907,-2.19329866e-09,3.62393164,3.66129938,2.01204422,-2.84509848,9.98276376e-05,5.74970390,-4.15111458,-1,-0.9993094139312945
3.26075317e+02,7.99999904,-2.15699406e-09,3.61955369,3.66162239,2.00920921,-2.84509848,9.98235423e-05,5.75252226,-4.14265752,-1,-0.9992427455499934
3.39797209e+02,7.99999902,-2.12053673e-09,3.61506586,3.66195184,2.00630641,-2.84509848,9.98255180e-05,5.75540796,-4.13399798,-1,-0.9991733533070227
3.54069521e+02,7.99999899,-2.08383918e-09,3.61045525,3.66228411,2.00333655,-2.84509848,9.98225860e-05,5.75835987,-4.12514018,-1,-0.9991011775646355
3.68958826e+02,7.99999896,-2.04662894e-09,3.60571112,3.66261918,2.00029435,-2.84509848,9.97996668e-05,5.76138356,-4.11606776,-1,-0.9990258816600892
3.84498724e+02,7.99999892,-2.01009444e-09,3.60099794,3.66299980,1.99717651,-2.84509848,9.98787961e-05,5.76448119,-4.10677247,-1,-0.9989472956766289
4.00647099e+02,7.99999889,-1.97308861e-09,3.59600543,3.66334285,1.99399417,-2.84509848,9.98762736e-05,5.76764373,-4.09728205,-1,-0.9988656325968158
4.17465185e+02,7.99999886,-1.93580839e-09,3.59102334,3.66372435,1.99074012,-2.84509848,9.99165564e-05,5.77087642,-4.08758162,-1,-0.9987805827574777
4.35029701e+02,7.99999883,-1.89801688e-09,3.58580447,3.66408402,1.98741136,-2.84509848,9.98913250e-05,5.77418384,-4.07765676,-1,-0.9986917581870807
4.53265145e+02,7.99999879,-1.86058330e-09,3.58047573,3.66444853,1.98401796,-2.84509848,9.98858086e-05,5.77755538,-4.06754134,-1,-0.9985995407027332
4.72326384e+02,7.99999876,-1.82335334e-09,3.57526949,3.66488392,1.98054405,-2.84509848,9.99949999e-05,5.78100543,-4.05718822,-1,-0.9985031471348483
4.92136509e+02,7.99999872,-1.78608889e-09,3.56988450,3.66530811,1.97700317,-2.84509848,1.00076946e-04,5.78452237,-4.04663615,-1,-0.9984029664157987
5.12791586e+02,7.99999869,-1.74812903e-09,3.56427185,3.66571191,1.97338927,-2.84509848,1.00075901e-04,5.78811255,-4.03586332,-1,-0.9982985127353761
5.34265546e+02,7.99999865,-1.71098801e-09,3.55851183,3.66611229,1.96970849,-2.84509848,1.00102723e-04,5.79176973,-4.02489005,-1,-0.9981899179257198
5.56698786e+02,7.99999861,-1.67402535e-09,3.55263035,3.66651941,1.96595350,-2.84509848,1.00134309e-04,5.79550033,-4.01369548,-1,-0.9980764719927027
5.79990309e+02,7.99999857,-1.63682783e-09,3.54666613,3.66693804,1.96213413,-2.84509848,1.00153551e-04,5.79929462,-4.00231019,-1,-0.9979586856828283
6.04318691e+02,7.99999853,-1.59971567e-09,3.54069213,3.66739263,1.95823796,-2.84509848,1.00217535e-04,5.80316024,-3.99069478,-1,-0.9978356559289993
6.29624808e+02,7.99999849,-1.56278358e-09,3.53454230,3.66783656,1.95427519,-2.84509849,1.00253592e-04,5.80706919,-3.97885161,-1,-0.99770768172402
6.55938737e+02,7.99999845,-1.52579788e-09,3.52817293,3.66825777,1.95024808,-2.84509850,1.00222983e-04,5.81101518,-3.96677944,-1,-0.9975746109671098
6.83423704e+02,7.99999841,-1.48942059e-09,3.52214992,3.66880593,1.94614026,-2.84509852,1.00418773e-04,5.81500999,-3.95443575,-1,-0.997435618216831
7.12017051e+02,7.99999837,-1.45339585e-09,3.51563361,3.66926220,1.94196955,-2.84509852,1.00456522e-04,5.81904163,-3.94185735,-1,-0.9972910203375903
7.41797496e+02,7.99999833,-1.41903065e-09,3.50911706,3.66975141,1.93773287,-2.84509852,1.00634854e-04,5.82310988,-3.92903815,-1,-0.997140419248818
7.72774825e+02,7.99999829,-1.38406035e-09,3.50240763,3.67022304,1.93343489,-2.84509852,1.00709984e-04,5.82721250,-3.91598552,-1,-0.9969837654622591
8.05051850e+02,7.99999824,-1.34911138e-09,3.49578580,3.67075113,1.92906779,-2.84509853,1.00849348e-04,5.83135637,-3.90267692,-1,-0.9968205390528709
8.38692581e+02,7.99999820,-1.31444046e-09,3.48886140,3.67123481,1.92463823,-2.84509852,1.00891979e-04,5.83553667,-3.88912085,-1,-0.9966504163191208
8.73712797e+02,7.99999815,-1.28048502e-09,3.48183547,3.67172308,1.92014872,-2.84509852,1.00955906e-04,5.83975138,-3.87532004,-1,-0.9964733174658752
9.10160371e+02,7.99999811,-1.24663763e-09,3.47469746,3.67221265,1.91560058,-2.84509852,1.00986048e-04,5.84400041,-3.86127932,-1,-0.9962890003971574
9.48114780e+02,7.99999806,-1.21293988e-09,3.46769435,3.67276747,1.91098938,-2.84509853,1.01096672e-04,5.84828717,-3.84698421,-1,-0.9960970631940999
9.87632305e+02,7.99999801,-1.17989442e-09,3.46043152,3.67328601,1.90632089,-2.84509853,1.01145962e-04,5.85260835,-3.83243974,-1,-0.9958972212410804
1.02877511e+03,7.99999797,-1.14756716e-09,3.45297849,3.67378399,1.90159841,-2.84509853,1.01165721e-04,5.85696160,-3.81765218,-1,-0.9956891601718738
1.07162536e+03,7.99999792,-1.11599243e-09,3.44563452,3.67433742,1.89681957,-2.84509853,1.01296183e-04,5.86134766,-3.80261695,-1,-0.995472464474272
1.11624133e+03,7.99999787,-1.08474030e-09,3.43813322,3.67487789,1.89198798,-2.84509853,1.01375229e-04,5.86576593,-3.78733465,-1,-0.9952468394489027
1.16270941e+03,7.99999782,-1.05403396e-09,3.43057548,3.67543009,1.88710472,-2.84509853,1.01464730e-04,5.87021654,-3.77180447,-1,-0.9950118482175373
1.21108560e+03,7.99999777,-1.02380416e-09,3.42283288,3.67595989,1.88217381,-2.84509853,1.01495265e-04,5.87469691,-3.75603287,-1,-0.9947672075855838
1.26148007e+03,7.99999772,-9.94724911e-10,3.41524640,3.67655468,1.87719099,-2.84509858,1.01693277e-04,5.87921247,-3.74000383,-1,-0.9945123604182529
1.31395294e+03,7.99999767,-9.65744195e-10,3.40753339,3.67714084,1.87216217,-2.84509856,1.01819448e-04,5.88376199,-3.72372477,-1,-0.9942470026859218
1.36857321e+03,7.99999762,-9.37491124e-10,3.39959890,3.67769181,1.86709298,-2.84509856,1.01885692e-04,5.88834101,-3.70720559,-1,-0.9939707854523969
1.42544371e+03,7.99999756,-9.09762571e-10,3.39166748,3.67826411,1.86198267,-2.84509856,1.01974310e-04,5.89295163,-3.69043748,-1,-0.9936831887016088
1.48466200e+03,7.99999751,-8.82550180e-10,3.38373132,3.67885541,1.85683199,-2.84509857,1.02081107e-04,5.89759502,-3.67342433,-1,-0.9933837190681215
1.54632573e+03,7.99999746,-8.56390902e-10,3.37583262,3.67947674,1.85163999,-2.84509862,1.02289341e-04,5.90227316,-3.65615657,-1,-0.9930718827313655
1.61050140e+03,7.99999740,-8.30219090e-10,3.36777446,3.68007480,1.84641478,-2.84509860,1.02372071e-04,5.90698153,-3.63864974,-1,-0.9927473433977627
1.67729740e+03,7.99999735,-8.05147516e-10,3.35965537,3.68067412,1.84115661,-2.84509860,1.02511128e-04,5.91172214,-3.62089861,-1,-0.9924095529340663
1.74684125e+03,7.99999730,-7.80721073e-10,3.35143699,3.68126249,1.83587067,-2.84509860,1.02626715e-04,5.91649296,-3.60291171,-1,-0.9920578664657338
1.81930912e+03,7.99999724,-7.56019611e-10,3.34311957,3.68183966,1.83055762,-2.84509860,1.02592596e-04,5.92129721,-3.58467183,-1,-0.9916913930929211
1.89478090e+03,7.99999718,-7.33065652e-10,3.33515613,3.68252194,1.82521134,-2.84509866,1.02908040e-04,5.92614258,-3.56617323,-1,-0.9913097288082005
1.97324974e+03,7.99999713,-7.10545868e-10,3.32684640,3.68312735,1.81984565,-2.84509862,1.03051391e-04,5.93102205,-3.54743758,-1,-0.990912908252339
2.05504760e+03,7.99999707,-6.88666460e-10,3.31848870,3.68372974,1.81446202,-2.84509862,1.03186623e-04,5.93583909,-3.52863928,-1,-0.9904992526882517
2.14019079e+03,7.99999701,-6.67083714e-10,3.31009893,3.68433205,1.80906252,-2.84509861,1.03270814e-04,5.94076564,-3.50945970,-1,-0.9900686796355136
2.22878880e+03,7.99999696,-6.46227082e-10,3.30168201,3.68493362,1.80365092,-2.84509861,1.03368710e-04,5.94574890,-3.49004400,-1,-0.9896206353981268
2.32107796e+03,7.99999690,-6.26077118e-10,3.29355144,3.68561672,1.79821943,-2.84509870,1.03642662e-04,5.95078245,-3.47034621,-1,-0.9891539248443428
2.41722215e+03,7.99999684,-6.06494506e-10,3.28517784,3.68624199,1.79278209,-2.84509862,1.03794828e-04,5.95585193,-3.45041714,-1,-0.9886677192254162
2.51722263e+03,7.99999678,-5.87506912e-10,3.27674969,3.68685505,1.78734191,-2.84509862,1.03924715e-04,5.96095949,-3.43024705,-1,-0.9881620121694688
2.62137242e+03,7.99999672,-5.69077167e-10,3.26837813,3.68748304,1.78190014,-2.84509862,1.04078605e-04,5.96610659,-3.40982895,-1,-0.9876353218607977
2.72992800e+03,7.99999666,-5.51311266e-10,3.26021142,3.68816561,1.77645164,-2.84509866,1.04357491e-04,5.97130476,-3.38914332,-1,-0.9870863512681718
2.84281738e+03,7.99999660,-5.34199261e-10,3.25192382,3.68881511,1.77100884,-2.84509859,1.04593325e-04,5.97654316,-3.36822206,-1,-0.9865154644483531
2.96045925e+03,7.99999654,-5.17534091e-10,3.24360181,3.68945139,1.76557527,-2.84509858,1.04781109e-04,5.98182819,-3.34705507,-1,-0.9859205440666324
3.08291076e+03,7.99999648,-5.01373949e-10,3.23527906,3.69008130,1.76015408,-2.84509856,1.04949241e-04,5.98716189,-3.32563991,-1,-0.9853013011128143
3.21035640e+03,7.99999641,-4.85826183e-10,3.22709041,3.69073772,1.75474691,-2.84509854,1.05191968e-04,5.99254813,-3.30397348,-1,-0.9846568026124297
3.34321485e+03,7.99999635,-4.70761499e-10,3.21885172,3.69137141,1.74936018,-2.84509852,1.05378489e-04,5.99798665,-3.28204727,-1,-0.9839849312813397
3.48142571e+03,7.99999629,-4.56151269e-10,3.21087330,3.69206192,1.74398997,-2.84509855,1.05677013e-04,6.00348014,-3.25985481,-1,-0.9832859925651397
3.62544171e+03,7.99999622,-4.41590889e-10,3.20279410,3.69271458,1.73864504,-2.84509850,1.05789922e-04,6.00903179,-3.23739177,-1,-0.9825576969872651
3.77538084e+03,7.99999616,-4.28096012e-10,3.19478765,3.69337002,1.73333095,-2.84509850,1.06045131e-04,6.01464221,-3.21466041,-1,-0.9817994478668247
3.93152776e+03,7.99999609,-4.15186476e-10,3.18686514,3.69402762,1.72805448,-2.84509850,1.06336399e-04,6.02031374,-3.19166165,-1,-0.9810098056650226
4.09416184e+03,7.99999603,-4.03023053e-10,3.17901086,3.69467956,1.72282347,-2.84509849,1.06694272e-04,6.02605074,-3.16839852,-1,-0.980187357594838
4.26358445e+03,7.99999596,-3.91329237e-10,3.17143010,3.69537767,1.71763686,-2.84509879,1.07162625e-04,6.03185872,-3.14485047,-1,-0.9793305796142319
4.43994782e+03,7.99999589,-3.79895224e-10,3.16380199,3.69603581,1.71250654,-2.84509849,1.07505600e-04,6.03773714,-3.12103937,-1,-0.9784387018890482
4.62365159e+03,7.99999582,-3.69142093e-10,3.15633235,3.69670304,1.70743724,-2.84509848,1.07948545e-04,6.04368939,-3.09693594,-1,-0.9775097034213093
4.81495050e+03,7.99999575,-3.59013942e-10,3.14896894,3.69736071,1.70244020,-2.84509848,1.08438970e-04,6.04971765,-3.07255533,-1,-0.9765422959790444
5.01441112e+03,7.99999568,-3.49244090e-10,3.14184907,3.69803906,1.69752356,-2.84509848,1.08968876e-04,6.05583264,-3.04787220,-1,-0.9755336143915394
5.22197866e+03,7.99999561,-3.39813590e-10,3.13504198,3.69875574,1.69268665,-2.84509954,1.09579729e-04,6.06203353,-3.02288985,-1,-0.9744839357343603
5.43838476e+03,7.99999554,-3.31006082e-10,3.12826839,3.69943294,1.68794547,-2.84509848,1.10189873e-04,6.06833193,-2.99758560,-1,-0.9733895600701628
5.66362545e+03,7.99999547,-3.22498919e-10,3.12169222,3.70010689,1.68330949,-2.84509848,1.10780221e-04,6.07472899,-2.97196939,-1,-0.9722505074754203
5.89841522e+03,7.99999539,-3.14407699e-10,3.11545337,3.70080599,1.67879185,-2.84509848,1.11451525e-04,6.08123881,-2.94601442,-1,-0.9710631647411325
6.14294296e+03,7.99999532,-3.06868403e-10,3.10939445,3.70148426,1.67440585,-2.84509848,1.12153655e-04,6.08786359,-2.91971908,-1,-0.9698265766418265
6.39771735e+03,7.99999524,-2.99783974e-10,3.10366373,3.70216997,1.67016908,-2.84509848,1.12919704e-04,6.09461330,-2.89307785,-1,-0.9685381707591976
6.66324914e+03,7.99999516,-2.93180741e-10,3.09834432,3.70287552,1.66609828,-2.84509848,1.13790553e-04,6.10150061,-2.86607454,-1,-0.9671953642068554
6.93975685e+03,7.99999508,-2.87135483e-10,3.09333733,3.70356889,1.66220803,-2.84509848,1.14729584e-04,6.10853146,-2.83872098,-1,-0.9657970519190454
7.22812244e+03,7.99999500,-2.81597147e-10,3.08888424,3.70429479,1.65852969,-2.84509848,1.15820305e-04,6.11572303,-2.81098172,-1,-0.9643387737832259
7.52822461e+03,7.99999492,-2.76568796e-10,3.08480195,3.70499752,1.65508309,-2.84509847,1.16938278e-04,6.12307843,-2.78287056,-1,-0.962821143219111
7.84140906e+03,7.99999483,-2.72157020e-10,3.08132120,3.70570980,1.65191814,-2.84509847,1.18196563e-04,6.13062289,-2.75434967,-1,-0.9612373549595143
8.16728535e+03,7.99999474,-2.68355382e-10,3.07846316,3.70643112,1.64904649,-2.84509847,1.19601988e-04,6.13835722,-2.72544135,-1,-0.9595893834775875
8.50718242e+03,7.99999465,-2.65231012e-10,3.07632612,3.70715358,1.64653304,-2.84509847,1.21153699e-04,6.14631296,-2.69611915,-1,-0.9578705082622399
8.86101310e+03,7.99999456,-2.62816445e-10,3.07509660,3.70790569,1.64441407,-2.84509847,1.22937381e-04,6.15449630,-2.66641548,-1,-0.9560811701361958
9.22946879e+03,7.99999446,-2.61298513e-10,3.07475666,3.70865258,1.64275032,-2.84509847,1.24943036e-04,6.16294146,-2.63633782,-1,-0.9542178726576537
9.61328885e+03,7.99999436,-2.60644124e-10,3.07548774,3.70939714,1.64162674,-2.84509847,1.27139124e-04,6.17165251,-2.60587741,-1,-0.9522768768488716
1.00121208e+04,7.99999426,-2.61029685e-10,3.07745917,3.71015458,1.64109757,-2.84509847,1.29638818e-04,6.18066468,-2.57506275,-1,-0.9502599652175245
1.04271268e+04,7.99999415,-2.62771980e-10,3.08101964,3.71094435,1.64129827,-2.84509847,1.32607329e-04,6.18998588,-2.54399160,-1,-0.9481612606667009
1.08575488e+04,7.99999404,-2.65982453e-10,3.08618445,3.71174171,1.64228596,-2.84509847,1.36014929e-04,6.19963576,-2.51273028,-1,-0.9459845966903376
1.13033183e+04,7.99999392,-2.71023448e-10,3.09328402,3.71256389,1.64419138,-2.84509847,1.40034712e-04,6.20966329,-2.48132777,-1,-0.9437303196961053
1.17640621e+04,7.99999379,-2.78228222e-10,3.10254350,3.71341656,1.64711579,-2.84509847,1.44803656e-04,6.21999546,-2.45005857,-1,-0.9414003169736778
1.22385122e+04,7.99999365,-2.87955769e-10,3.11415436,3.71431471,1.65112491,-2.84509847,1.50500424e-04,6.23063211,-2.41895440,-1,-0.9390010008577452
1.27252682e+04,7.99999351,-3.00483262e-10,3.12812529,3.71527204,1.65619572,-2.84509847,1.57299830e-04,6.24147886,-2.38807249,-1,-0.936539453235926
1.32236580e+04,7.99999336,-3.16010589e-10,3.14431177,3.71630986,1.66221331,-2.84509848,1.65412454e-04,6.25250926,-2.35721471,-1,-0.9340190729490288
1.37343265e+04,7.99999319,-3.34358606e-10,3.16221018,3.71746269,1.66885686,-2.84509848,1.75046016e-04,6.26339681,-2.32646522,-1,-0.931436598707904
1.42602946e+04,7.99999301,-3.54695789e-10,3.18083670,3.71877711,1.67554128,-2.84509848,1.86378335e-04,6.27416280,-2.29521046,-1,-0.9287767536814271
1.48074803e+04,7.99999280,-3.75400456e-10,3.19882745,3.72031762,1.68145563,-2.84509848,1.99574520e-04,6.28469448,-2.26306920,-1,-0.9260096102696798
1.53818349e+04,7.99999258,-3.94232754e-10,3.21470897,3.72213278,1.68576608,-2.84509848,2.14652171e-04,6.29536708,-2.22904563,-1,-0.9231050724731023
1.59858973e+04,7.99999234,-4.09308057e-10,3.22766986,3.72425642,1.68799924,-2.84509848,2.31640747e-04,6.30634607,-2.19311984,-1,-0.9200503009568797
1.66181625e+04,7.99999208,-4.20162313e-10,3.23787783,3.72668803,1.68824000,-2.84509848,2.50746656e-04,6.31773526,-2.15556939,-1,-0.9168529065756722
1.72757045e+04,7.99999180,-4.27432587e-10,3.24607601,3.72944058,1.68683399,-2.84509848,2.72619533e-04,6.32960254,-2.11681320,-1,-0.9135276862469115
1.79561995e+04,7.99999150,-4.32073010e-10,3.25305897,3.73253777,1.68413109,-2.84509848,2.98240688e-04,6.34194474,-2.07710135,-1,-0.9100863915347562
1.86547251e+04,7.99999120,-4.35047931e-10,3.25966678,3.73613585,1.68023885,-2.84509848,3.30007113e-04,6.35465346,-2.03670367,-1,-0.9065539152438429
1.93641422e+04,7.99999089,-4.36675500e-10,3.26635478,3.74045320,1.67494814,-2.84509848,3.71555076e-04,6.36763124,-1.99587521,-1,-0.9029663601333093
2.00776205e+04,7.99999058,-4.37170586e-10,3.27346081,3.74558261,1.66824233,-2.84509849,4.26347884e-04,6.38062378,-1.95537438,-1,-0.8993582673464005
2.07909199e+04,7.99999027,-4.37219570e-10,3.28128968,3.75144212,1.66043775,-2.84509851,4.97152350e-04,6.39361204,-1.91526968,-1,-0.8957510792650721
2.15001114e+04,7.99998996,-4.36962263e-10,3.28977930,3.75797850,1.65160981,-2.84509854,5.87675550e-04,6.40652055,-1.87570450,-1,-0.8921646650241806
2.21968511e+04,7.99998965,-4.35771094e-10,3.29858388,3.76525764,1.64145381,-2.84509862,7.04859430e-04,6.41917703,-1.83714706,-1,-0.8886412201122288
2.28839953e+04,7.99998935,-4.33468622e-10,3.30743285,3.77310509,1.63018339,-2.84509871,8.54285074e-04,6.43164308,-1.79939527,-1,-0.8851663000879109
2.35737620e+04,7.99998906,-4.30452934e-10,3.31619302,3.78124251,1.61828864,-2.84509883,1.04067968e-03,6.44412921,-1.76175419,-1,-0.881678117959709
2.42713495e+04,7.99998876,-4.26692179e-10,3.32466957,3.78957408,1.60586378,-2.84509897,1.27199192e-03,6.45669670,-1.72395248,-1,-0.8781503856839161
2.49801885e+04,7.99998846,-4.21998779e-10,3.33267627,3.79804943,1.59291643,-2.84509990,1.55823968e-03,6.46937671,-1.68585126,-1,-0.8745657540518403
2.57030804e+04,7.99998815,-4.16274068e-10,3.34005604,3.80663310,1.57943897,-2.84510206,1.89734378e-03,6.48218301,-1.64737726,-1,-0.8709100562540169
2.64417858e+04,7.99998785,-4.09492680e-10,3.34675605,3.81529908,1.56545702,-2.84510653,2.31232332e-03,6.49512964,-1.60841448,-1,-0.8671743888547552
2.71981152e+04,7.99998754,-4.01727665e-10,3.35273474,3.82402566,1.55099320,-2.84511287,2.82831811e-03,6.50823044,-1.56894908,-1,-0.8633495960717552
2.79743519e+04,7.99998724,-3.93024985e-10,3.35796477,3.83278911,1.53608132,-2.84512080,3.47496251e-03,6.52148283,-1.52896934,-1,-0.8594241311512328
2.87718986e+04,7.99998693,-3.83546282e-10,3.36250425,3.84157129,1.52078669,-2.84512934,4.29394294e-03,6.53488117,-1.48843443,-1,-0.8553909005743632
2.95916976e+04,7.99998662,-3.73498522e-10,3.36645129,3.85036187,1.50517905,-2.84513612,5.34333265e-03,6.54840353,-1.44732285,-1,-0.8512451390864314
3.04352258e+04,7.99998631,-3.63098220e-10,3.36990223,3.85914840,1.48933146,-2.84513772,6.70330615e-03,6.56204689,-1.40567791,-1,-0.846979377935778
3.13030378e+04,7.99998600,-3.52533680e-10,3.37301489,3.86792722,1.47333016,-2.84513447,8.47001777e-03,6.57581628,-1.36351168,-1,-0.8425908124845332
3.21955523e+04,7.99998569,-3.42088773e-10,3.37595897,3.87669795,1.45726074,-2.84512880,1.07702648e-02,6.58968391,-1.32087651,-1,-0.8380773253474169
