star_age,star_mass,star_mdot,log_L,log_Teff,log_R,log_surf_z,v_wind_Km_per_s,log_center_T,log_center_Rho,phase,x
1.17560320e+02,1.29999898e+01,-7.40923960e-08,4.03523104,3.64992097,2.24045073,-2.84509856,1.16360393e-03,5.70644593,-4.61070478,-1,-1.0
1.22360393e+02,1.29999895e+01,-7.32274118e-08,4.03249075,3.65010289,2.23871676,-2.84509856,1.16018926e-03,5.70813991,-4.60532846,-1,-0.9999434574005189
1.27332897e+02,1.29999891e+01,-7.23433621e-08,4.02967182,3.65028923,2.23693461,-2.84509857,1.15663495e-03,5.70987754,-4.59979255,-1,-0.9998848836450593
1.32491179e+02,1.29999887e+01,-7.14379688e-08,4.02677279,3.65048027,2.23510302,-2.84509858,1.15289086e-03,5.71165973,-4.59409276,-1,-0.9998241215122468
1.37850816e+02,1.29999884e+01,-7.05138775e-08,4.02378592,3.65067499,2.23322014,-2.84509859,1.14897540e-03,5.71348794,-4.58822285,-1,-0.9997609875123565
1.43423156e+02,1.29999880e+01,-6.95841989e-08,4.02069634,3.65087056,2.23128420,-2.84509859,1.14506883e-03,5.71536377,-4.58217649,-1,-0.9996953479712928
1.49243664e+02,1.29999876e+01,-6.86423400e-08,4.01755841,3.65108400,2.22928836,-2.84509860,1.14121727e-03,5.71729217,-4.57592884,-1,-0.9996267851280568
1.55088862e+02,1.29999872e+01,-6.77193543e-08,4.01999135,3.65275834,2.22715614,-2.84509861,1.22072849e-03,5.71923735,-4.56964683,-1,-0.9995579314482479
1.61288525e+02,1.29999868e+01,-6.79117660e-08,4.01877418,3.65353393,2.22499639,-2.84509862,1.27285655e-03,5.72127967,-4.56302938,-1,-0.9994849023376643
1.67818975e+02,1.29999863e+01,-6.72383509e-08,4.01532285,3.65377104,2.22279650,-2.84509863,1.27620047e-03,5.72340161,-4.55612456,-1,-0.9994079767119954
1.74623788e+02,1.29999859e+01,-6.62415442e-08,4.01178166,3.65401556,2.22053686,-2.84509864,1.27295812e-03,5.72557611,-4.54901334,-1,-0.9993278192193901
1.81697956e+02,1.29999854e+01,-6.52400742e-08,4.00815329,3.65426603,2.21822174,-2.84509865,1.26978203e-03,5.72779937,-4.54170901,-1,-0.9992444888517299
1.89053883e+02,1.29999849e+01,-6.42207236e-08,4.00443029,3.65452169,2.21584891,-2.84509866,1.26636387e-03,5.73007317,-4.53420067,-1,-0.9991578394957361
1.96703417e+02,1.29999845e+01,-6.31795423e-08,4.00061695,3.65478408,2.21341747,-2.84509867,1.26260454e-03,5.73239762,-4.52648553,-1,-0.9990677315875484
2.04657492e+02,1.29999840e+01,-6.21221191e-08,3.99670832,3.65505264,2.21092603,-2.84509868,1.25857920e-03,5.73477446,-4.51855439,-1,-0.9989740363297955
2.12925637e+02,1.29999835e+01,-6.10431902e-08,3.99270285,3.65532731,2.20837395,-2.84509869,1.25419564e-03,5.73720347,-4.51040433,-1,-0.998876641475345
2.21545320e+02,1.29999829e+01,-5.99585696e-08,3.98859236,3.65560813,2.20575707,-2.84509870,1.24981334e-03,5.73968827,-4.50201766,-1,-0.9987751056688016
2.30519195e+02,1.29999824e+01,-5.88883074e-08,3.98438320,3.65589519,2.20307838,-2.84509871,1.24576861e-03,5.74222600,-4.49340192,-1,-0.9986693976472948
2.39844361e+02,1.29999819e+01,-5.78045222e-08,3.98008330,3.65618905,2.20034070,-2.84509872,1.24148425e-03,5.74481388,-4.48456246,-1,-0.9985595515832386
2.49532987e+02,1.29999813e+01,-5.67092442e-08,3.97569134,3.65648966,2.19754350,-2.84509873,1.23702666e-03,5.74745313,-4.47549736,-1,-0.9984454241315436
2.59595426e+02,1.29999808e+01,-5.56128406e-08,3.97120259,3.65679546,2.19468753,-2.84509874,1.23249321e-03,5.75014343,-4.46620565,-1,-0.9983268933387454
2.70101021e+02,1.29999802e+01,-5.45140993e-08,3.96661313,3.65710932,2.19176508,-2.84509876,1.22790889e-03,5.75289111,-4.45665240,-1,-0.9982031423769588
2.81016044e+02,1.29999796e+01,-5.34189719e-08,3.96192441,3.65742644,2.18878647,-2.84509878,1.22332354e-03,5.75568750,-4.44687416,-1,-0.998074568546141
2.92342664e+02,1.29999790e+01,-5.23232032e-08,3.95715036,3.65775050,2.18575133,-2.84509880,1.21871912e-03,5.75853365,-4.43686649,-1,-0.997941146296493
3.04155022e+02,1.29999784e+01,-5.12355452e-08,3.95227657,3.65808276,2.18264992,-2.84509883,1.21425045e-03,5.76143903,-4.42658773,-1,-0.9978020022819497
3.16430983e+02,1.29999778e+01,-5.01387358e-08,3.94730637,3.65842005,2.17949023,-2.84509886,1.20946470e-03,5.76439640,-4.41606183,-1,-0.9976573972423871
3.29176125e+02,1.29999772e+01,-4.90482709e-08,3.94223301,3.65875958,2.17627450,-2.84509888,1.20467825e-03,5.76740439,-4.40529553,-1,-0.9975072654715921
3.42472571e+02,1.29999765e+01,-4.79685106e-08,3.93708714,3.65911215,2.17299641,-2.84509890,1.20006043e-03,5.77046930,-4.39425518,-1,-0.9973506395992981
3.56260503e+02,1.29999759e+01,-4.68895625e-08,3.93184832,3.65946798,2.16966536,-2.84509892,1.19530864e-03,5.77358343,-4.38297567,-1,-0.9971882242533757
3.70635046e+02,1.29999752e+01,-4.58202227e-08,3.92650852,3.65982842,2.16627458,-2.84509893,1.19055265e-03,5.77675286,-4.37141668,-1,-0.997018898906121
3.85551105e+02,1.29999745e+01,-4.47566211e-08,3.92109548,3.66019644,2.16283200,-2.84509895,1.18578128e-03,5.77997155,-4.35961195,-1,-0.9968431947553982
4.01092480e+02,1.29999739e+01,-4.36991439e-08,3.91559230,3.66056940,2.15933449,-2.84509897,1.18091294e-03,5.78324419,-4.34753768,-1,-0.9966601246766702
4.17225071e+02,1.29999732e+01,-4.26563852e-08,3.91000604,3.66094789,2.15578440,-2.84509898,1.17618969e-03,5.78656937,-4.33519826,-1,-0.9964700903518787
4.34027430e+02,1.29999725e+01,-4.16188916e-08,3.90433664,3.66133240,2.15218067,-2.84509900,1.17134388e-03,5.78994936,-4.32258094,-1,-0.9962721664754556
4.51483713e+02,1.29999718e+01,-4.05966327e-08,3.89858982,3.66172187,2.14852833,-2.84509902,1.16657442e-03,5.79338021,-4.30969889,-1,-0.9960665396822594
4.69645081e+02,1.29999710e+01,-3.95840713e-08,3.89277040,3.66211778,2.14482679,-2.84509904,1.16178143e-03,5.79686473,-4.29654033,-1,-0.9958526073198033
4.88530285e+02,1.29999703e+01,-3.85810589e-08,3.88687545,3.66251847,2.14107794,-2.84509905,1.15690188e-03,5.80040288,-4.28310355,-1,-0.9956301485101372
5.08153886e+02,1.29999696e+01,-3.75972742e-08,3.88091982,3.66292437,2.13728832,-2.84509907,1.15217155e-03,5.80399084,-4.26941107,-1,-0.9953989917315383
5.28582932e+02,1.29999688e+01,-3.66237438e-08,3.87489354,3.66333662,2.13345068,-2.84509914,1.14735268e-03,5.80763674,-4.25541648,-1,-0.9951583471901412
5.49808784e+02,1.29999680e+01,-3.56651276e-08,3.86880044,3.66375339,2.12957058,-2.84509922,1.14259121e-03,5.81133856,-4.24113717,-1,-0.9949083166492972
5.71886131e+02,1.29999673e+01,-3.47314452e-08,3.86264870,3.66417495,2.12565161,-2.84509926,1.13812978e-03,5.81509600,-4.22657502,-1,-0.9946482558983408
5.94838966e+02,1.29999665e+01,-3.38024679e-08,3.85644724,3.66460137,2.12169803,-2.84509929,1.13331631e-03,5.81890713,-4.21173997,-1,-0.9943778823110307
6.18720748e+02,1.29999657e+01,-3.29021726e-08,3.85019453,3.66503431,2.11770581,-2.84509932,1.12898133e-03,5.82278032,-4.19659871,-1,-0.9940965661655221
6.43536893e+02,1.29999649e+01,-3.20103526e-08,3.84389551,3.66547156,2.11368178,-2.84509933,1.12441563e-03,5.82670955,-4.18117279,-1,-0.9938042436638854
6.69339439e+02,1.29999641e+01,-3.11380915e-08,3.83755547,3.66591336,2.10962816,-2.84509935,1.11993355e-03,5.83069592,-4.16545448,-1,-0.9935003018229863
6.96171794e+02,1.29999633e+01,-3.02886415e-08,3.83118223,3.66636002,2.10554823,-2.84509937,1.11567245e-03,5.83473802,-4.14943993,-1,-0.9931842293170268
7.24073743e+02,1.29999625e+01,-2.94540052e-08,3.82477833,3.66681085,2.10144461,-2.84509939,1.11137380e-03,5.83883635,-4.13312386,-1,-0.9928555574974424
7.53100774e+02,1.29999616e+01,-2.86396827e-08,3.81834534,3.66726384,2.09732213,-2.84509941,1.10711996e-03,5.84299119,-4.11650745,-1,-0.9925136327417236
7.83279702e+02,1.29999608e+01,-2.78507408e-08,3.81191292,3.66772536,2.09318290,-2.84509943,1.10326480e-03,5.84720422,-4.09958822,-1,-0.9921581391817981
8.14655031e+02,1.29999599e+01,-2.70794457e-08,3.80545444,3.66818631,2.08903176,-2.84509949,1.09929290e-03,5.85147470,-4.08236845,-1,-0.991788552581504
8.47273927e+02,1.29999590e+01,-2.63211254e-08,3.79899588,3.66865188,2.08487133,-2.84509957,1.09518598e-03,5.85580573,-4.06484075,-1,-0.9914043173475726
8.81192230e+02,1.29999582e+01,-2.55868651e-08,3.79254141,3.66912200,2.08070385,-2.84509959,1.09138008e-03,5.86020169,-4.04699535,-1,-0.9910047757111003
9.16460728e+02,1.29999573e+01,-2.48749858e-08,3.78609380,3.66959543,2.07653319,-2.84509961,1.08776202e-03,5.86466411,-4.02882365,-1,-0.9905893294133643
9.53132989e+02,1.29999564e+01,-2.41870250e-08,3.77966818,3.67007275,2.07236575,-2.84509962,1.08441863e-03,5.86919677,-4.01033574,-1,-0.9901573474485508
9.91265129e+02,1.29999555e+01,-2.35181761e-08,3.77326092,3.67055083,2.06820595,-2.84509973,1.08114118e-03,5.87380161,-3.99152928,-1,-0.9897081687966062
1.03091826e+03,1.29999546e+01,-2.28699244e-08,3.76689370,3.67103270,2.06405861,-2.84509984,1.07796848e-03,5.87848103,-3.97239830,-1,-0.9892410735869492
1.07216492e+03,1.29999537e+01,-2.22477180e-08,3.76058773,3.67151891,2.05993319,-2.84509992,1.07524861e-03,5.88322963,-3.95295710,-1,-0.9887552073560999
1.11505971e+03,1.29999527e+01,-2.16450860e-08,3.75433941,3.67200908,2.05582869,-2.84509992,1.07268998e-03,5.88806011,-3.93316528,-1,-0.9882499269299909
1.15966528e+03,1.29999518e+01,-2.10620940e-08,3.74815475,3.67249979,2.05175494,-2.84509994,1.07013485e-03,5.89296805,-3.91303479,-1,-0.9877244943211254
1.20605446e+03,1.29999508e+01,-2.05016480e-08,3.74205706,3.67299315,2.04771938,-2.84509992,1.06788940e-03,5.89795594,-3.89256426,-1,-0.9871780516264008
1.25429577e+03,1.29999499e+01,-1.99638732e-08,3.73604548,3.67348514,2.04372962,-2.84509995,1.06589413e-03,5.90302753,-3.87174815,-1,-0.9866097917124844
1.30447107e+03,1.29999489e+01,-1.94505635e-08,3.73016885,3.67398424,2.03979309,-2.84509991,1.06434517e-03,5.90818672,-3.85057973,-1,-0.9860187503071262
1.35665131e+03,1.29999479e+01,-1.89561063e-08,3.72441365,3.67448428,2.03591542,-2.84509985,1.06294139e-03,5.91343896,-3.82903429,-1,-0.9854040916527378
1.41092114e+03,1.29999469e+01,-1.84879569e-08,3.71880561,3.67498589,2.03210819,-2.84509987,1.06209395e-03,5.91879129,-3.80711630,-1,-0.9847648186121829
1.46736775e+03,1.29999458e+01,-1.80418873e-08,3.71336809,3.67548921,2.02838279,-2.84509984,1.06154368e-03,5.92424934,-3.78482947,-1,-0.9840999041283212
1.52607604e+03,1.29999448e+01,-1.76184143e-08,3.70810829,3.67599196,2.02474739,-2.84509994,1.06135025e-03,5.92982354,-3.76214267,-1,-0.9834083481191337
1.58714301e+03,1.29999437e+01,-1.72207746e-08,3.70307790,3.67649974,2.02121662,-2.84510005,1.06178602e-03,5.93551883,-3.73905731,-1,-0.9826890079703001
1.65065669e+03,1.29999427e+01,-1.68462209e-08,3.69828051,3.67700636,2.01780468,-2.84510016,1.06265201e-03,5.94134052,-3.71556416,-1,-0.9819408467298755
1.71672130e+03,1.29999416e+01,-1.64977930e-08,3.69375785,3.67751395,2.01452817,-2.84510000,1.06415189e-03,5.94729278,-3.69164952,-1,-0.9811626367353394
1.78543021e+03,1.29999405e+01,-1.61762614e-08,3.68954270,3.67802165,2.01140520,-2.84509995,1.06634669e-03,5.95337817,-3.66730317,-1,-0.9803532781320617
1.85689279e+03,1.29999393e+01,-1.58798593e-08,3.68569280,3.67853405,2.00845545,-2.84510005,1.06915743e-03,5.95960791,-3.64250412,-1,-0.9795114825929473
1.93127069e+03,1.29999382e+01,-1.56149615e-08,3.68223358,3.67904345,2.00570705,-2.84509992,1.07286946e-03,5.96599265,-3.61722550,-1,-0.9786353459571205
2.00867338e+03,1.29999370e+01,-1.53806116e-08,3.67923574,3.67955319,2.00318864,-2.84509998,1.07752671e-03,5.97254613,-3.59146037,-1,-0.9777235787195333
2.08918617e+03,1.29999357e+01,-1.51801736e-08,3.67677178,3.68006716,2.00092872,-2.84509993,1.08332956e-03,5.97928006,-3.56519919,-1,-0.9767751759685599
2.17289720e+03,1.29999345e+01,-1.50150349e-08,3.67486053,3.68057269,1.99896204,-2.84510007,1.09018605e-03,5.98620136,-3.53842336,-1,-0.9757890994565074
2.25988689e+03,1.29999332e+01,-1.48869993e-08,3.67362693,3.68108228,1.99732606,-2.84509991,1.09834594e-03,5.99332288,-3.51111773,-1,-0.9747644018736473
2.35043216e+03,1.29999318e+01,-1.48040943e-08,3.67318585,3.68159025,1.99608957,-2.84510011,1.10812520e-03,6.00066945,-3.48323393,-1,-0.9736978212327873
2.44449047e+03,1.29999304e+01,-1.47690376e-08,3.67361935,3.68209585,1.99529513,-2.84509998,1.11961217e-03,6.00824360,-3.45476961,-1,-0.9725898586350943
2.54218640e+03,1.29999290e+01,-1.47902983e-08,3.67507583,3.68259870,1.99501768,-2.84509985,1.13321748e-03,6.01606486,-3.42569276,-1,-0.9714390465868358
2.64364358e+03,1.29999275e+01,-1.48826110e-08,3.67776427,3.68310196,1.99535537,-2.84509984,1.14970170e-03,6.02415808,-3.39596844,-1,-0.9702439287848318
2.74882272e+03,1.29999259e+01,-1.50592191e-08,3.68186220,3.68360140,1.99640545,-2.84509982,1.16960135e-03,6.03253809,-3.36558363,-1,-0.9690049680467799
2.85766039e+03,1.29999243e+01,-1.53426601e-08,3.68762241,3.68410067,1.99828702,-2.84509978,1.19410009e-03,6.04121753,-3.33453955,-1,-0.9677229115482096
2.97000788e+03,1.29999225e+01,-1.57612857e-08,3.69533327,3.68459961,2.00114456,-2.84509974,1.22446551e-03,6.05020352,-3.30284814,-1,-0.9663995110228898
3.08563514e+03,1.29999206e+01,-1.63543868e-08,3.70540033,3.68509817,2.00518097,-2.84509969,1.26224068e-03,6.05949833,-3.27057222,-1,-0.9650374763514852
3.20391000e+03,1.29999186e+01,-1.71603287e-08,3.71812792,3.68560225,2.01053660,-2.84509963,1.30919301e-03,6.06911627,-3.23776928,-1,-0.9636442541988931
3.32407522e+03,1.29999165e+01,-1.82333739e-08,3.73385623,3.68611890,2.01736746,-2.84509955,1.36750445e-03,6.07901018,-3.20461934,-1,-0.9622287644957127
3.44514919e+03,1.29999142e+01,-1.96366760e-08,3.75283019,3.68665788,2.02577649,-2.84509946,1.43960711e-03,6.08916309,-3.17127362,-1,-0.9608025701454824
3.56610189e+03,1.29999117e+01,-2.14349433e-08,3.77505913,3.68724660,2.03571351,-2.84509937,1.52876908e-03,6.09951355,-3.13794606,-1,-0.9593778042987435
3.68628406e+03,1.29999089e+01,-2.36771309e-08,3.80018364,3.68792952,2.04690994,-2.84509928,1.63807734e-03,6.11004752,-3.10473896,-1,-0.9579621149325452
3.80588812e+03,1.29999059e+01,-2.63883170e-08,3.82752632,3.68877137,2.05889756,-2.84509919,1.77141824e-03,6.12080989,-3.07153127,-1,-0.9565532354299024
3.92624612e+03,1.29999025e+01,-2.95459295e-08,3.85605129,3.68986720,2.07096840,-2.84509921,1.93402335e-03,6.13193625,-3.03791420,-1,-0.9551354748691063
4.04894273e+03,1.29998986e+01,-3.30717331e-08,3.88472676,3.69143194,2.08217666,-2.84509902,2.13752240e-03,6.14358084,-3.00343865,-1,-0.9536901665838127
4.17722824e+03,1.29998941e+01,-3.66847855e-08,3.91147522,3.69383761,2.09073954,-2.84509896,2.40381425e-03,6.15605335,-2.96726357,-1,-0.9521790236884536
4.31293847e+03,1.29998889e+01,-3.98937194e-08,3.93433101,3.69732246,2.09519774,-2.84509891,2.75816516e-03,6.16948029,-2.92898365,-1,-0.9505804210879572
4.45360230e+03,1.29998831e+01,-4.25057377e-08,3.95342398,3.70188969,2.09560976,-2.84509889,3.22362518e-03,6.18352838,-2.88947189,-1,-0.9489234674122187
4.59478682e+03,1.29998769e+01,-4.45037099e-08,3.96952866,3.70760279,2.09223590,-2.84509886,3.84077879e-03,6.19769298,-2.85014520,-1,-0.9472603802534845
4.73326055e+03,1.29998706e+01,-4.58954256e-08,3.98316543,3.71440293,2.08545400,-2.84509885,4.66061876e-03,6.21160130,-2.81202976,-1,-0.9456292249243803
4.87015219e+03,1.29998643e+01,-4.68259779e-08,3.99495509,3.72190386,2.07634698,-2.84509885,5.73207003e-03,6.22532138,-2.77490987,-1,-0.9440167058704354
5.00644197e+03,1.29998578e+01,-4.73847405e-08,4.00524621,3.72988818,2.06552390,-2.84509884,7.12406822e-03,6.23890692,-2.73864741,-1,-0.9424112764438616
5.14349580e+03,1.29998513e+01,-4.76535799e-08,4.01434008,3.73816718,2.05351283,-2.84509883,8.89657138e-03,6.25248044,-2.70295540,-1,-0.9407968468680955
5.28256100e+03,1.29998447e+01,-4.76831652e-08,4.02237922,3.74662367,2.04061942,-2.84509884,1.11133857e-02,6.26611955,-2.66772626,-1,-0.9391587243009274
5.42433485e+03,1.29998379e+01,-4.74964249e-08,4.02942927,3.75520110,2.02698960,-2.84509886,1.38567045e-02,6.27985312,-2.63295555,-1,-0.9374886951123216
5.56943922e+03,1.29998311e+01,-4.71084112e-08,4.03550797,3.76385904,2.01271306,-2.84509886,1.72392467e-02,6.29367493,-2.59869401,-1,-0.9357794339665302
5.71850956e+03,1.29998241e+01,-4.65266196e-08,4.04059202,3.77256319,1.99784678,-2.84509891,2.14060702e-02,6.30753643,-2.56498648,-1,-0.9340234555618004
5.87221239e+03,1.29998170e+01,-4.57555184e-08,4.04462889,3.78128040,1.98243080,-2.84509897,2.65366037e-02,6.32133149,-2.53178816,-1,-0.9322129086064112
6.03121772e+03,1.29998098e+01,-4.47990761e-08,4.04755738,3.78997694,1.96650197,-2.84509935,3.28391728e-02,6.33488861,-2.49889347,-1,-0.9303399006980846
6.19611407e+03,1.29998025e+01,-4.36683479e-08,4.04934252,3.79861991,1.95010860,-2.84510030,4.05105380e-02,6.34800108,-2.46591374,-1,-0.9283974993483677
6.36733235e+03,1.29997952e+01,-4.23855870e-08,4.05001001,3.80718169,1.93331877,-2.84510035,4.97511119e-02,6.36052998,-2.43237561,-1,-0.9263806286403853
6.54516559e+03,1.29997878e+01,-4.09855128e-08,4.04966585,3.81564311,1.91622386,-2.84510024,6.11312614e-02,6.37252595,-2.39792253,-1,-0.9242858368187317
6.72978861e+03,1.29997804e+01,-3.95117267e-08,4.04848195,3.82399721,1.89892371,-2.84510087,7.51937646e-02,6.38422850,-2.36247257,-1,-0.9221110645861333
6.92135270e+03,1.29997730e+01,-3.80064954e-08,4.04667083,3.83224625,1.88152007,-2.84510046,9.26275991e-02,6.39591277,-2.32614415,-1,-0.919854529817636
7.12010294e+03,1.29997656e+01,-3.65086759e-08,4.04444173,3.84039248,1.86411307,-2.84509863,1.14485221e-01,6.40774099,-2.28907441,-1,-0.9175133455862534
7.32620067e+03,1.29997582e+01,-3.50562151e-08,4.04205190,3.84844494,1.84681323,-2.84509847,1.42207142e-01,6.41976034,-2.25132855,-1,-0.9150856113827638
7.53968816e+03,1.29997509e+01,-3.36851906e-08,4.03979380,3.85641953,1.82973500,-2.84509868,1.77778918e-01,6.43196464,-2.21295517,-1,-0.9125708292864732
7.76038688e+03,1.29997436e+01,-3.24301323e-08,4.03800603,3.86434280,1.81299457,-2.84509889,2.23917224e-01,6.44433742,-2.17399940,-1,-0.9099711022967079
7.98795311e+03,1.29997364e+01,-3.13172547e-08,4.03699188,3.87224457,1.79668395,-2.84509896,2.83952564e-01,6.45684951,-2.13457484,-1,-0.9072904792732025
8.22166531e+03,1.29997292e+01,-3.03632206e-08,4.03702219,3.88016181,1.78086462,-2.84509897,3.61971604e-01,6.46947232,-2.09478983,-1,-0.9045374596173683
8.46074492e+03,1.29997221e+01,-2.95740767e-08,4.03824686,3.88812597,1.76554864,-2.84509902,4.63179427e-01,6.48217941,-2.05475795,-1,-0.9017212143993645
8.70455571e+03,1.29997150e+01,-2.89346684e-08,4.04063342,3.89615562,1.75068263,-2.84509917,5.91864919e-01,6.49494735,-2.01458794,-1,-0.8988492381089763
8.95260797e+03,1.29997079e+01,-2.84196495e-08,4.04403268,3.90426209,1.73616931,-2.84509924,7.50689137e-01,6.50776945,-1.97433024,-1,-0.8959272992993887
9.20480115e+03,1.29997008e+01,-2.79980742e-08,4.04821298,3.91244835,1.72188694,-2.84509932,9.38530734e-01,6.52064713,-1.93400484,-1,-0.8929565824022507
9.46124083e+03,1.29996936e+01,-2.76363653e-08,4.05290173,3.92070933,1.70770935,-2.84509937,1.14873417,6.53359044,-1.89358958,-1,-0.8899358437348819
9.72230556e+03,1.29996865e+01,-2.73060986e-08,4.05785956,3.92903755,1.69353183,-2.84509940,1.37042465,6.54661396,-1.85304366,-1,-0.88686062415655
9.98844610e+03,1.29996793e+01,-2.69849995e-08,4.06289198,3.93742365,1.67927583,-2.84509953,1.58494866,6.55973014,-1.81232468,-1,-0.8837256139267274
1.02600971e+04,1.29996720e+01,-2.66579773e-08,4.06786334,3.94585784,1.66489313,-2.84509957,1.76788373,6.57294972,-1.77139132,-1,-0.8805256930731006
1.05376275e+04,1.29996646e+01,-2.63177172e-08,4.07270501,3.95433301,1.65036364,-2.84509992,1.90118014,6.58627800,-1.73021517,-1,-0.8772565156562113
1.08215378e+04,1.29996572e+01,-2.59598210e-08,4.07736726,3.96283800,1.63568478,-2.84510012,1.98308449,6.59971498,-1.68880065,-1,-0.8739121860217559
1.11121203e+04,1.29996498e+01,-2.55870731e-08,4.08187019,3.97136788,1.62087649,-2.84510034,2.02435482,6.61326286,-1.64713327,-1,-0.8704892610133848
1.14095947e+04,1.29996422e+01,-2.52045114e-08,4.08625493,3.97991807,1.60596848,-2.84510065,2.04172905,6.62691843,-1.60522415,-1,-0.8669851526685595
1.17140559e+04,1.29996346e+01,-2.48194809e-08,4.09058785,3.98848720,1.59099667,-2.84510095,2.04790132,6.64068132,-1.56308346,-1,-0.8633987431099706
1.20257964e+04,1.29996269e+01,-2.44374436e-08,4.09491841,3.99707162,1.57599312,-2.84510104,2.04919675,6.65454006,-1.52074324,-1,-0.8597265868253625
