star_age,star_mass,star_mdot,log_L,log_Teff,log_R,log_surf_z,v_wind_Km_per_s,log_center_T,log_center_Rho,phase,x
9.06706832e+01,2.59999448e+01,-5.23129797e-07,4.51613873,3.65073658,2.47927335,-2.84509853,4.04911672e-03,5.71484736,-4.93976699,-1,-1.0
9.41287622e+01,2.59999430e+01,-5.17688946e-07,4.51374353,3.65090484,2.47773923,-2.84509853,4.03905826e-03,5.71650568,-4.93327422,-1,-0.9998967202351975
9.76994818e+01,2.59999412e+01,-5.12224249e-07,4.51130655,3.65107807,2.47617429,-2.84509853,4.02922134e-03,5.71820494,-4.92661199,-1,-0.9997900763209133
1.01390407e+02,2.59999393e+01,-5.06712076e-07,4.50882077,3.65125513,2.47457728,-2.84509853,4.01936257e-03,5.71994726,-4.91977128,-1,-0.9996798423191569
1.05210573e+02,2.59999374e+01,-5.01122540e-07,4.50627810,3.65143469,2.47294683,-2.84509853,4.00917336e-03,5.72173507,-4.91274167,-1,-0.9995657483826139
1.09206999e+02,2.59999354e+01,-4.95441362e-07,4.50367835,3.65162187,2.47127258,-2.84509853,3.99874136e-03,5.72358425,-4.90545749,-1,-0.999446390225287
1.13350860e+02,2.59999334e+01,-4.89778045e-07,4.50102728,3.65181348,2.46956384,-2.84509854,3.98872748e-03,5.72548388,-4.89796574,-1,-0.9993226287411062
1.17642815e+02,2.59999313e+01,-4.84062064e-07,4.49832401,3.65200874,2.46782169,-2.84509854,3.97854507e-03,5.72743325,-4.89026523,-1,-0.9991944442482293
1.22090536e+02,2.59999292e+01,-4.78257006e-07,4.49556845,3.65220782,2.46604573,-2.84509854,3.96788682e-03,5.72943473,-4.88234917,-1,-0.9990616076129797
1.26703520e+02,2.59999270e+01,-4.72377029e-07,4.49276032,3.65241089,2.46423553,-2.84509854,3.95683664e-03,5.73149098,-4.87420869,-1,-0.9989238351958204
1.31489752e+02,2.59999248e+01,-4.66498163e-07,4.48989827,3.65261744,2.46239142,-2.84509854,3.94597349e-03,5.73360283,-4.86583377,-1,-0.9987808885149463
1.36455144e+02,2.59999225e+01,-4.60657967e-07,4.48699151,3.65282936,2.46051418,-2.84509855,3.93567028e-03,5.73577179,-4.85722596,-1,-0.9986325910012364
1.41615475e+02,2.59999201e+01,-4.54718656e-07,4.48403984,3.65304693,2.45860321,-2.84509855,3.92464780e-03,5.73800151,-4.84836156,-1,-0.9984784713955295
1.46974953e+02,2.59999177e+01,-4.48772261e-07,4.48103808,3.65326835,2.45665949,-2.84509855,3.91367651e-03,5.74029252,-4.83924300,-1,-0.9983184040207516
1.52534204e+02,2.59999153e+01,-4.42837837e-07,4.47799265,3.65349385,2.45468578,-2.84509855,3.90287222e-03,5.74264361,-4.82987401,-1,-0.9981523701806461
1.58300294e+02,2.59999128e+01,-4.36857849e-07,4.47490628,3.65372367,2.45268294,-2.84509855,3.89170503e-03,5.74505580,-4.82024999,-1,-0.9979801588404683
1.64281790e+02,2.59999102e+01,-4.30909446e-07,4.47177229,3.65395546,2.45065238,-2.84509855,3.88077004e-03,5.74753104,-4.81036162,-1,-0.9978015141362706
1.70487002e+02,2.59999075e+01,-4.24976609e-07,4.46861462,3.65419462,2.44859523,-2.84509856,3.87002814e-03,5.75007056,-4.80020855,-1,-0.9976161878797247
1.76924119e+02,2.59999048e+01,-4.19086411e-07,4.46542510,3.65443814,2.44651343,-2.84509856,3.85959988e-03,5.75267568,-4.78978130,-1,-0.9974239354963158
1.83610032e+02,2.59999021e+01,-4.13180463e-07,4.46218617,3.65468075,2.44440874,-2.84509857,3.84867350e-03,5.75534981,-4.77906668,-1,-0.9972242525156405
1.90552538e+02,2.59998993e+01,-4.07270686e-07,4.45895442,3.65493603,2.44228231,-2.84509858,3.83788037e-03,5.75809462,-4.76805902,-1,-0.9970169060707443
1.97755260e+02,2.59998964e+01,-4.01449734e-07,4.45568566,3.65519126,2.44013746,-2.84509858,3.82750398e-03,5.76091082,-4.75675893,-1,-0.9968017879562946
2.05226761e+02,2.59998934e+01,-3.95666726e-07,4.45240278,3.65545067,2.43797720,-2.84509858,3.81724002e-03,5.76379890,-4.74516409,-1,-0.9965786424278085
2.12976126e+02,2.59998904e+01,-3.89972623e-07,4.44910789,3.65571334,2.43580441,-2.84509859,3.80747416e-03,5.76676063,-4.73326679,-1,-0.9963471981506334
2.21012573e+02,2.59998873e+01,-3.84372392e-07,4.44581158,3.65598030,2.43362233,-2.84509859,3.79825874e-03,5.76979656,-4.72106511,-1,-0.9961071798179093
2.29345388e+02,2.59998841e+01,-3.78811281e-07,4.44251261,3.65624963,2.43143420,-2.84509859,3.78894129e-03,5.77290877,-4.70855166,-1,-0.9958583100918726
2.37985511e+02,2.59998809e+01,-3.73323639e-07,4.43923377,3.65652544,2.42924316,-2.84509859,3.77999323e-03,5.77609941,-4.69571889,-1,-0.995600262236024
2.46965728e+02,2.59998776e+01,-3.67919602e-07,4.43596429,3.65680278,2.42705373,-2.84509860,3.77119407e-03,5.77937668,-4.68253876,-1,-0.9953320570563171
2.56295219e+02,2.59998742e+01,-3.62613251e-07,4.43272314,3.65708406,2.42487060,-2.84509860,3.76275019e-03,5.78274202,-4.66900246,-1,-0.995053420380808
2.65966281e+02,2.59998707e+01,-3.57452080e-07,4.42952470,3.65737052,2.42269845,-2.84509860,3.75520035e-03,5.78619322,-4.65512933,-1,-0.9947645822690266
2.75989800e+02,2.59998672e+01,-3.52383833e-07,4.42636615,3.65765904,2.42054214,-2.84509860,3.74780919e-03,5.78973261,-4.64090986,-1,-0.9944652175972497
2.86377266e+02,2.59998636e+01,-3.47445017e-07,4.42325219,3.65794783,2.41840758,-2.84509861,3.74086552e-03,5.79334829,-4.62636411,-1,-0.9941549832025541
2.97179474e+02,2.59998599e+01,-3.42702817e-07,4.42023215,3.65824481,2.41630362,-2.84509861,3.73523629e-03,5.79707877,-4.61139598,-1,-0.993832362030051
3.08396060e+02,2.59998561e+01,-3.38147786e-07,4.41729328,3.65854340,2.41423699,-2.84509861,3.73055173e-03,5.80091444,-4.59603088,-1,-0.9934973649510463
3.20017777e+02,2.59998522e+01,-3.33702706e-07,4.41444797,3.65884414,2.41221287,-2.84509863,3.72601034e-03,5.80485180,-4.58028283,-1,-0.9931502681385207
3.32058741e+02,2.59998482e+01,-3.29469012e-07,4.41171383,3.65914711,2.41023985,-2.84509863,3.72261192e-03,5.80889482,-4.56414291,-1,-0.9927906500008449
3.44571287e+02,2.59998442e+01,-3.25520899e-07,4.40912058,3.65945186,2.40833372,-2.84509863,3.72102378e-03,5.81305574,-4.54757289,-1,-0.9924169474891437
3.57572757e+02,2.59998400e+01,-3.21776938e-07,4.40670324,3.65976165,2.40650546,-2.84509864,3.72034190e-03,5.81734079,-4.53055983,-1,-0.9920286426633466
3.71043166e+02,2.59998357e+01,-3.18260870e-07,4.40445570,3.66007173,2.40476154,-2.84509864,3.72065979e-03,5.82174542,-4.51312632,-1,-0.9916263323999563
3.84998535e+02,2.59998313e+01,-3.15001474e-07,4.40240983,3.66038394,2.40311419,-2.84509864,3.72231092e-03,5.82627437,-4.49525683,-1,-0.9912095382121854
3.99495787e+02,2.59998268e+01,-3.12097858e-07,4.40061187,3.66069769,2.40158770,-2.84509864,3.72609867e-03,5.83094293,-4.47690380,-1,-0.9907765600249192
4.14563012e+02,2.59998221e+01,-3.09535204e-07,4.39910289,3.66101289,2.40020283,-2.84509864,3.73169341e-03,5.83576053,-4.45804649,-1,-0.990326558895903
4.30174541e+02,2.59998173e+01,-3.07345728e-07,4.39789147,3.66132745,2.39896799,-2.84509864,3.73937797e-03,5.84072269,-4.43871196,-1,-0.9898603014612614
4.46350759e+02,2.59998123e+01,-3.05542990e-07,4.39703432,3.66164480,2.39790472,-2.84509864,3.74924380e-03,5.84583561,-4.41888053,-1,-0.9893771788980016
4.63112745e+02,2.59998072e+01,-3.04183039e-07,4.39656654,3.66196191,2.39703661,-2.84509865,3.76158295e-03,5.85110932,-4.39853537,-1,-0.9888765616559712
4.80559911e+02,2.59998019e+01,-3.03373747e-07,4.39660692,3.66227856,2.39642349,-2.84509865,3.77690748e-03,5.85657630,-4.37758031,-1,-0.9883554806740297
4.98642096e+02,2.59997965e+01,-3.03147224e-07,4.39717604,3.66259602,2.39607313,-2.84509865,3.79567162e-03,5.86222759,-4.35606506,-1,-0.9878154340718797
5.17367893e+02,2.59997908e+01,-3.03590928e-07,4.39833205,3.66291293,2.39601732,-2.84509865,3.81843604e-03,5.86807062,-4.33397206,-1,-0.9872561652090515
5.36750858e+02,2.59997849e+01,-3.04793034e-07,4.40015173,3.66322888,2.39629525,-2.84509865,3.84577544e-03,5.87411612,-4.31128390,-1,-0.9866772692190015
5.56846386e+02,2.59997787e+01,-3.06925719e-07,4.40277644,3.66354325,2.39697888,-2.84509865,3.87863751e-03,5.88038882,-4.28795107,-1,-0.9860770916622067
5.77688630e+02,2.59997723e+01,-3.10261995e-07,4.40635784,3.66385589,2.39814430,-2.84509865,3.91921520e-03,5.88690963,-4.26392455,-1,-0.9854546125174916
5.99198499e+02,2.59997655e+01,-3.14903080e-07,4.41091452,3.66416728,2.39979986,-2.84509865,3.96841045e-03,5.89366080,-4.23927473,-1,-0.984812193934442
6.21447838e+02,2.59997584e+01,-3.21324235e-07,4.41671678,3.66447728,2.40208098,-2.84509865,4.02953404e-03,5.90067983,-4.21391074,-1,-0.9841476901741368
6.44367073e+02,2.59997509e+01,-3.29706195e-07,4.42381969,3.66478481,2.40501738,-2.84509865,4.10364863e-03,5.90795713,-4.18788926,-1,-0.9834631791493007
6.68000869e+02,2.59997429e+01,-3.40694717e-07,4.43257071,3.66508807,2.40878638,-2.84509865,4.19430736e-03,5.91552752,-4.16114319,-1,-0.9827573268850026
6.92241344e+02,2.59997344e+01,-3.54624119e-07,4.44307857,3.66539263,2.41343117,-2.84509864,4.30343197e-03,5.92337252,-4.13375924,-1,-0.982033355409307
7.17035282e+02,2.59997253e+01,-3.72315813e-07,4.45566886,3.66570508,2.41910142,-2.84509864,4.43585176e-03,5.93150320,-4.10575788,-1,-0.9812928540832329
7.42248805e+02,2.59997155e+01,-3.94442241e-07,4.47048345,3.66602960,2.42585967,-2.84509863,4.59502135e-03,5.93989838,-4.07724658,-1,-0.9805398213372246
7.67742147e+02,2.59997050e+01,-4.22232010e-07,4.48780159,3.66636691,2.43384413,-2.84509863,4.78697031e-03,5.94853889,-4.04832932,-1,-0.979778431454058
7.93268745e+02,2.59996936e+01,-4.56857192e-07,4.50788771,3.66673881,2.44314340,-2.84509862,5.01759955e-03,5.95736436,-4.01922254,-1,-0.9790160483397192
8.18316273e+02,2.59996815e+01,-5.00920093e-07,4.53154288,3.66721794,2.45401271,-2.84509861,5.30516465e-03,5.96623528,-3.99043776,-1,-0.9782679732376972
8.41681974e+02,2.59996690e+01,-5.59694312e-07,4.56017799,3.66801456,2.46673704,-2.84509860,5.70397109e-03,5.97474548,-3.96326964,-1,-0.9775701279589379
8.63603119e+02,2.59996557e+01,-6.36065328e-07,4.59192611,3.66939743,2.47984534,-2.84509859,6.29052058e-03,5.98300304,-3.93737114,-1,-0.976915426114416
8.87273972e+02,2.59996395e+01,-7.15828677e-07,4.62129762,3.67125596,2.49081405,-2.84509857,6.99100990e-03,5.99220615,-3.90899594,-1,-0.9762084670974254
9.13678630e+02,2.59996194e+01,-7.87997480e-07,4.64636405,3.67345860,2.49894198,-2.84509856,7.74166451e-03,6.00271488,-3.87704019,-1,-0.9754198596457356
9.41566785e+02,2.59995962e+01,-8.57902408e-07,4.66915510,3.67607617,2.50510237,-2.84509855,8.62145601e-03,6.01402039,-3.84307222,-1,-0.9745869457391485
9.70202991e+02,2.59995705e+01,-9.27640571e-07,4.69077035,3.67927694,2.50950844,-2.84509854,9.72193990e-03,6.02581250,-3.80802556,-1,-0.9737316903732307
9.99176938e+02,2.59995424e+01,-9.96131498e-07,4.71141812,3.68322190,2.51194240,-2.84509853,1.11499823e-02,6.03789862,-3.77247013,-1,-0.9728663479586817
1.02826886e+03,2.59995123e+01,-1.06236241e-06,4.73119407,3.68787434,2.51252551,-2.84509853,1.29978783e-02,6.05018558,-3.73664633,-1,-0.9719974820762614
1.05751353e+03,2.59994801e+01,-1.12676392e-06,4.75025416,3.69305587,2.51169248,-2.84509852,1.53417796e-02,6.06263628,-3.70065687,-1,-0.9711240541877347
1.08697115e+03,2.59994459e+01,-1.19000700e-06,4.76869658,3.69863854,2.50974835,-2.84509852,1.82701945e-02,6.07526978,-3.66444785,-1,-0.9702442662866362
1.11663696e+03,2.59994095e+01,-1.25181156e-06,4.78654581,3.70457248,2.50680510,-2.84509852,2.18931572e-02,6.08809114,-3.62796509,-1,-0.9693582605361958
1.14652790e+03,2.59993711e+01,-1.31189288e-06,4.80376847,3.71082232,2.50291674,-2.84509853,2.63619948e-02,6.10105896,-3.59130916,-1,-0.9684655310025654
1.17665642e+03,2.59993305e+01,-1.36944920e-06,4.82030391,3.71736698,2.49809514,-2.84509851,3.19022300e-02,6.11415374,-3.55456608,-1,-0.9675657058512461
1.20697444e+03,2.59992881e+01,-1.42343735e-06,4.83609385,3.72419851,2.49232707,-2.84509851,3.88111023e-02,6.12739980,-3.51766118,-1,-0.9666602210503266
1.23750234e+03,2.59992438e+01,-1.47313208e-06,4.85107335,3.73130004,2.48561374,-2.84509851,4.74850842e-02,6.14069776,-3.48079746,-1,-0.9657484679261452
1.26821451e+03,2.59991978e+01,-1.51740068e-06,4.86514884,3.73866540,2.47792076,-2.84509851,5.84008794e-02,6.15404682,-3.44399435,-1,-0.9648312113527194
1.29910782e+03,2.59991502e+01,-1.55521210e-06,4.87825151,3.74628221,2.46923849,-2.84509851,7.21722003e-02,6.16740465,-3.40736234,-1,-0.9639085448113326
1.33017131e+03,2.59991014e+01,-1.58569641e-06,4.89030673,3.75413774,2.45955503,-2.84509851,8.95648348e-02,6.18074493,-3.37093641,-1,-0.9629807956358087
1.36139684e+03,2.59990514e+01,-1.60831658e-06,4.90128632,3.76221459,2.44889114,-2.84509851,1.11662943e-01,6.19404473,-3.33475514,-1,-0.9620482069372177
1.39278772e+03,2.59990007e+01,-1.62274989e-06,4.91117794,3.77049234,2.43728144,-2.84509850,1.40024903e-01,6.20729198,-3.29882675,-1,-0.9611106798583554
1.42436690e+03,2.59989493e+01,-1.62880424e-06,4.91997123,3.77894999,2.42476279,-2.84509851,1.76619133e-01,6.22045604,-3.26321060,-1,-0.9601675289693625
1.45616680e+03,2.59988975e+01,-1.62656237e-06,4.92766729,3.78756562,2.41137956,-2.84509851,2.23997034e-01,6.23351405,-3.22794885,-1,-0.9592177860072311
1.48823556e+03,2.59988455e+01,-1.61636578e-06,4.93429133,3.79631496,2.39719289,-2.84509853,2.86054516e-01,6.24646250,-3.19303810,-1,-0.9582600132118989
1.52060415e+03,2.59987935e+01,-1.59909200e-06,4.93992860,3.80517550,2.38229045,-2.84509857,3.68389729e-01,6.25932009,-3.15839610,-1,-0.9572932856263839
1.55338547e+03,2.59987415e+01,-1.57542944e-06,4.94460450,3.81412059,2.36673822,-2.84509863,4.79762421e-01,6.27207555,-3.12408976,-1,-0.9563142313539057
1.58661983e+03,2.59986897e+01,-1.54620646e-06,4.94843069,3.82313167,2.35062916,-2.84509862,6.31328119e-01,6.28474894,-3.09003022,-1,-0.9553216464869425
1.62041329e+03,2.59986380e+01,-1.51247485e-06,4.95145773,3.83218841,2.33402920,-2.84509850,8.39173335e-01,6.29733704,-3.05624356,-1,-0.9543123634136916
1.65484127e+03,2.59985867e+01,-1.47509656e-06,4.95378390,3.84127378,2.31702154,-2.84509851,1.12782013,6.30985732,-3.02267710,-1,-0.9532841296234783
1.68997447e+03,2.59985357e+01,-1.43490595e-06,4.95549801,3.85037525,2.29967566,-2.84509851,1.53308409,6.32232191,-2.98930941,-1,-0.952234833574209
1.72589142e+03,2.59984850e+01,-1.39247366e-06,4.95663812,3.85948285,2.28203051,-2.84509847,2.09460247,6.33471765,-2.95620983,-1,-0.95116212987125
1.76263844e+03,2.59984347e+01,-1.34844737e-06,4.95726872,3.86859103,2.26412945,-2.84509846,2.85034615,6.34704628,-2.92340648,-1,-0.9500646351110682
1.80028308e+03,2.59983850e+01,-1.30328006e-06,4.95742497,3.87769364,2.24600236,-2.84509846,3.82298907,6.35930310,-2.89095591,-1,-0.9489403318301782
1.83888297e+03,2.59983357e+01,-1.25739615e-06,4.95714366,3.88678472,2.22767955,-2.84509848,4.99515949,6.37148776,-2.85887822,-1,-0.9477874988380447
1.87855748e+03,2.59982869e+01,-1.21091574e-06,4.95639737,3.89585409,2.20916766,-2.84509849,6.28705430,6.38357620,-2.82726796,-1,-0.9466025710034127
1.91941592e+03,2.59982385e+01,-1.16410039e-06,4.95519141,3.90489063,2.19049160,-2.84509850,7.58062242,6.39555338,-2.79609369,-1,-0.9453822836492489
1.96160721e+03,2.59981906e+01,-1.11712335e-06,4.95351071,3.91387827,2.17167597,-2.84509850,8.77995201,6.40739082,-2.76528651,-1,-0.9441221890973558
2.00529928e+03,2.59981430e+01,-1.07016644e-06,4.95133916,3.92279829,2.15275015,-2.84509851,9.84067274,6.41904604,-2.73470002,-1,-0.9428172719126019
2.05065325e+03,2.59980957e+01,-1.02344244e-06,4.94867316,3.93163196,2.13374981,-2.84509852,1.07521252e+01,6.43047592,-2.70410508,-1,-0.9414627200488469
2.09780660e+03,2.59980487e+01,-9.77224384e-07,4.94553239,3.94036338,2.11471658,-2.84509851,1.15049725e+01,6.44165623,-2.67323990,-1,-0.9400544274975049
2.14687180e+03,2.59980020e+01,-9.31834262e-07,4.94196328,3.94898076,2.09569727,-2.84509853,1.20888887e+01,6.45261148,-2.64187092,-1,-0.9385890352042721
2.19794409e+03,2.59979558e+01,-8.87625209e-07,4.93803523,3.95747669,2.07674139,-2.84509854,1.25035267e+01,6.46343000,-2.60985337,-1,-0.9370636987098983
2.25109559e+03,2.59979099e+01,-8.44972479e-07,4.93384584,3.96584964,2.05790080,-2.84509856,1.27756092e+01,6.47423929,-2.57713701,-1,-0.9354762640622506
2.30643836e+03,2.59978645e+01,-8.04084736e-07,4.92946252,3.97409561,2.03921718,-2.84509857,1.29369364e+01,6.48513502,-2.54377776,-1,-0.9338233844521776
2.36407979e+03,2.59978195e+01,-7.65137267e-07,4.92495858,3.98221199,2.02073247,-2.84509865,1.30149818e+01,6.49617181,-2.50980943,-1,-0.9321018525457976
2.42407509e+03,2.59977749e+01,-7.28397973e-07,4.92045178,3.99020396,2.00249512,-2.84509881,1.30291904e+01,6.50738151,-2.47522369,-1,-0.9303100194288392
2.48657230e+03,2.59977307e+01,-6.93863599e-07,4.91599642,3.99806554,1.98454429,-2.84509859,1.29920063e+01,6.51875128,-2.44007401,-1,-0.9284434637053824
2.55163476e+03,2.59976884e+01,-5.96741615e-07,4.91173834,4.00580463,1.96693707,-2.84509860,1.16469363e+01,6.53029580,-2.40433756,-1,-0.9265002936487483
2.61929701e+03,2.59976535e+01,-4.62421282e-07,4.90781310,4.01343031,1.94972307,-2.84509867,9.37138065,6.54201001,-2.36803676,-1,-0.924479477679532
2.68954008e+03,2.59976262e+01,-3.39787667e-07,4.90440170,4.02095996,1.93295809,-2.84509874,7.12233470,6.55390080,-2.33115795,-1,-0.9223815823600181
2.76239717e+03,2.59976064e+01,-2.27224352e-07,4.90163757,4.02840467,1.91668660,-2.84509867,4.90679261,6.56595036,-2.29377726,-1,-0.9202056161315433
2.83786408e+03,2.59975940e+01,-1.23451642e-07,4.89964650,4.03577676,1.90094688,-2.84509898,2.73659728,6.57813469,-2.25599504,-1,-0.9179517044322515
2.91577354e+03,2.59975888e+01,-3.24746565e-08,4.89859093,4.04310416,1.88576430,-2.84509886,7.36766639e-01,6.59045083,-2.21783258,-1,-0.9156248429855657
2.99598867e+03,2.59975863e+01,-3.09161674e-08,4.89855363,4.05040800,1.87113797,-2.84509892,7.16347358e-01,6.60288127,-2.17936609,-1,-0.9132291198803371
3.07834532e+03,2.59975838e+01,-3.16021624e-08,4.89955921,4.05770821,1.85704033,-2.84509953,7.46280863e-01,6.61541201,-2.14066105,-1,-0.910769437657367
3.16268696e+03,2.59975811e+01,-3.24697809e-08,4.90156148,4.06502189,1.84341411,-2.84509916,7.79973079e-01,6.62802429,-2.10179808,-1,-0.9082504712768241
3.24888499e+03,2.59975782e+01,-3.35186101e-08,4.90445516,4.07236174,1.83018126,-2.84509913,8.17381650e-01,6.64070927,-2.06282012,-1,-0.9056760615352181
3.33685475e+03,2.59975752e+01,-3.47421525e-08,4.90809939,4.07973683,1.81725318,-2.84509907,8.58344764e-01,6.65345974,-2.02376129,-1,-0.9030487369071408
3.42656790e+03,2.59975720e+01,-3.61305366e-08,4.91234225,4.08715299,1.80454229,-2.84509902,9.02966475e-01,6.66627514,-1.98463606,-1,-0.9003693438014032
3.51803721e+03,2.59975686e+01,-3.76721090e-08,4.91703517,4.09461386,1.79196703,-2.84509901,9.51617939e-01,6.67915496,-1.94545111,-1,-0.8976375008263145
3.61127349e+03,2.59975650e+01,-3.93523783e-08,4.92203916,4.10212031,1.77945612,-2.84509897,1.00471063,6.69210013,-1.90620270,-1,-0.8948528851279847
3.70634067e+03,2.59975612e+01,-4.11605243e-08,4.92724432,4.10967322,1.76695286,-2.84509888,1.06259631,6.70511037,-1.86689297,-1,-0.892013587358662
3.80329232e+03,2.59975571e+01,-4.30855670e-08,4.93255852,4.11727202,1.75441238,-2.84509888,1.12513403,6.71818375,-1.82752372,-1,-0.8891180075846836
3.90217527e+03,2.59975527e+01,-4.51178483e-08,4.93791124,4.12491529,1.74180219,-2.84509897,1.19205565,6.73131882,-1.78809024,-1,-0.8861647471707421
4.00306960e+03,2.59975480e+01,-4.72506798e-08,4.94324902,4.13260183,1.72909799,-2.84509897,1.26323623,6.74451233,-1.74860026,-1,-0.8831514144295552
4.10604162e+03,2.59975430e+01,-4.94780080e-08,4.94853158,4.14032959,1.71628377,-2.84509907,1.33907267,6.75776331,-1.70905085,-1,-0.8800760289317562
4.21115195e+03,2.59975376e+01,-5.17943019e-08,4.95372927,4.14809630,1.70334919,-2.84509913,1.42018118,6.77106486,-1.66945814,-1,-0.8769367801867973
4.31847395e+03,2.59975319e+01,-5.41952742e-08,4.95881922,4.15589961,1.69028755,-2.84509917,1.50735218,6.78441481,-1.62982219,-1,-0.8737314772084271
4.42808467e+03,2.59975258e+01,-5.66768112e-08,4.96378328,4.16373721,1.67709438,-2.84509911,1.60104722,6.79780740,-1.59015145,-1,-0.8704578188040245
4.54006225e+03,2.59975193e+01,-5.92351127e-08,4.96860696,4.17160674,1.66376716,-2.84509913,1.70147763,6.81123931,-1.55045125,-1,-0.8671134712267833
4.65448820e+03,2.59975123e+01,-6.18659940e-08,4.97327811,4.17950575,1.65030470,-2.84509922,1.80877527,6.82470492,-1.51072506,-1,-0.8636960000807197
