star_age,star_mass,star_mdot,log_L,log_Teff,log_R,log_surf_z,v_wind_Km_per_s,log_center_T,log_center_Rho,phase,x
8.23361017e+01,2.99999246e+01,-7.94592041e-07,4.61898660,3.65088579,2.53039888,-2.84509851,5.27657875e-03,5.71494173,-5.00687670,-1,-1.0
8.54703403e+01,2.99999221e+01,-7.86959957e-07,4.61678519,3.65105026,2.52896923,-2.84509851,5.26538709e-03,5.71661816,-5.00024806,-1,-0.999891702281366
8.86990451e+01,2.99999196e+01,-7.79276697e-07,4.61454573,3.65121765,2.52751471,-2.84509852,5.25421847e-03,5.71833399,-4.99345813,-1,-0.9997801404609028
9.20306376e+01,2.99999171e+01,-7.71535359e-07,4.61226549,3.65138818,2.52603354,-2.84509852,5.24304416e-03,5.72009242,-4.98649342,-1,-0.9996650235495202
9.55045379e+01,2.99999144e+01,-7.63705524e-07,4.60993102,3.65156287,2.52451691,-2.84509852,5.23175436e-03,5.72190872,-4.97929007,-1,-0.9995449894598208
9.91215379e+01,2.99999117e+01,-7.55756620e-07,4.60754703,3.65174183,2.52296701,-2.84509852,5.22004346e-03,5.72378192,-4.97184964,-1,-0.9994200108291897
1.02861595e+02,2.99999089e+01,-7.47778779e-07,4.60512408,3.65192462,2.52138996,-2.84509853,5.20848381e-03,5.72570369,-4.96420861,-1,-0.9992907801919656
1.06731489e+02,2.99999060e+01,-7.39775488e-07,4.60266139,3.65211125,2.51978534,-2.84509853,5.19708077e-03,5.72767642,-4.95635821,-1,-0.9991570632849136
1.10740103e+02,2.99999031e+01,-7.31699358e-07,4.60015634,3.65230143,2.51815247,-2.84509853,5.18544422e-03,5.72970327,-4.94828653,-1,-0.9990185531692242
1.14932994e+02,2.99999001e+01,-7.23502588e-07,4.59760675,3.65249775,2.51648502,-2.84509853,5.17335136e-03,5.73180045,-4.93992302,-1,-0.9988736757084652
1.19275421e+02,2.99998970e+01,-7.15316491e-07,4.59501901,3.65269739,2.51479188,-2.84509854,5.16152790e-03,5.73395421,-4.93132895,-1,-0.9987236313125363
1.23774876e+02,2.99998938e+01,-7.07093033e-07,4.59239784,3.65290136,2.51307335,-2.84509854,5.14962015e-03,5.73616652,-4.92249611,-1,-0.9985681611094712
1.28439327e+02,2.99998905e+01,-6.98830645e-07,4.58974016,3.65310857,2.51133009,-2.84509854,5.13754579e-03,5.73843971,-4.91341402,-1,-0.99840698978002
1.33277209e+02,2.99998872e+01,-6.90564367e-07,4.58705208,3.65332011,2.50956296,-2.84509854,5.12559072e-03,5.74077608,-4.90407316,-1,-0.9982398258686253
1.38295849e+02,2.99998838e+01,-6.82336872e-07,4.58434529,3.65353824,2.50777332,-2.84509854,5.11411278e-03,5.74317709,-4.89446790,-1,-0.9980664162045859
1.43502338e+02,2.99998803e+01,-6.74150475e-07,4.58160741,3.65375882,2.50596321,-2.84509854,5.10286556e-03,5.74564408,-4.88459036,-1,-0.9978865157717367
1.48905423e+02,2.99998767e+01,-6.65923101e-07,4.57884543,3.65398290,2.50413407,-2.84509855,5.09127317e-03,5.74818025,-4.87443108,-1,-0.9976998223339477
1.54512082e+02,2.99998730e+01,-6.57787135e-07,4.57606149,3.65420985,2.50228820,-2.84509855,5.08018909e-03,5.75078727,-4.86398676,-1,-0.9975060947795559
1.60330246e+02,2.99998692e+01,-6.49683922e-07,4.57327844,3.65444442,2.50042754,-2.84509855,5.06945084e-03,5.75346730,-4.85324582,-1,-0.9973050590677763
1.66368356e+02,2.99998653e+01,-6.41635984e-07,4.57047447,3.65467941,2.49855556,-2.84509855,5.05870519e-03,5.75622223,-4.84220324,-1,-0.9970964235357332
1.72634439e+02,2.99998613e+01,-6.33661661e-07,4.56768166,3.65492152,2.49667494,-2.84509855,5.04845416e-03,5.75905414,-4.83085489,-1,-0.9968799108255424
1.79136629e+02,2.99998573e+01,-6.25816600e-07,4.56489858,3.65516883,2.49478878,-2.84509855,5.03890240e-03,5.76196489,-4.81919058,-1,-0.9966552398821356
1.85883303e+02,2.99998531e+01,-6.18083920e-07,4.56211799,3.65541757,2.49290100,-2.84509855,5.02973785e-03,5.76495616,-4.80720354,-1,-0.9964221212540365
1.92883738e+02,2.99998488e+01,-6.10431247e-07,4.55935220,3.65566898,2.49101529,-2.84509856,5.02069526e-03,5.76803049,-4.79488827,-1,-0.9961802343919626
2.00146523e+02,2.99998445e+01,-6.02931252e-07,4.55662236,3.65592601,2.48913631,-2.84509856,5.01240624e-03,5.77119031,-4.78223529,-1,-0.9959292825191763
2.07681013e+02,2.99998400e+01,-5.95592086e-07,4.55392937,3.65618648,2.48726888,-2.84509856,5.00473385e-03,5.77443824,-4.76923643,-1,-0.9956689423912518
2.15496997e+02,2.99998354e+01,-5.88459886e-07,4.55128523,3.65645079,2.48541819,-2.84509856,4.99806910e-03,5.77777743,-4.75588369,-1,-0.995398875767709
2.23604001e+02,2.99998306e+01,-5.81563880e-07,4.54869084,3.65671611,2.48359035,-2.84509856,4.99243052e-03,5.78121060,-4.74217064,-1,-0.9951187534955387
2.32011886e+02,2.99998258e+01,-5.74829599e-07,4.54617698,3.65698715,2.48179135,-2.84509856,4.98733880e-03,5.78474070,-4.72808899,-1,-0.9948282348464363
2.40730830e+02,2.99998209e+01,-5.68292136e-07,4.54374910,3.65726216,2.48002737,-2.84509856,4.98290627e-03,5.78837095,-4.71362755,-1,-0.9945269681387591
2.49772981e+02,2.99998158e+01,-5.62082065e-07,4.54141446,3.65753882,2.47830675,-2.84509857,4.98005585e-03,5.79210477,-4.69877806,-1,-0.9942145336212199
2.59149107e+02,2.99998105e+01,-5.56178426e-07,4.53919611,3.65781856,2.47663809,-2.84509857,4.97860739e-03,5.79594647,-4.68352558,-1,-0.9938905592258359
2.68906024e+02,2.99998052e+01,-5.50588912e-07,4.53712252,3.65810054,2.47503733,-2.84509857,4.97823829e-03,5.79991165,-4.66782159,-1,-0.9935534273137981
2.79026167e+02,2.99997997e+01,-5.45415954e-07,4.53520686,3.65838485,2.47351088,-2.84509857,4.97992774e-03,5.80399437,-4.65169152,-1,-0.993203744810638
2.89519748e+02,2.99997940e+01,-5.40658259e-07,4.53347982,3.65867358,2.47206991,-2.84509858,4.98363971e-03,5.80819703,-4.63513341,-1,-0.9928411588599065
3.00400996e+02,2.99997881e+01,-5.36328524e-07,4.53195607,3.65896353,2.47072813,-2.84509859,4.98913131e-03,5.81253206,-4.61812140,-1,-0.9924651778052765
3.11684272e+02,2.99997821e+01,-5.32472182e-07,4.53067152,3.65925624,2.46950043,-2.84509859,4.99671744e-03,5.81700248,-4.60064508,-1,-0.9920753054294092
3.23384409e+02,2.99997759e+01,-5.29155030e-07,4.52965360,3.65955012,2.46840372,-2.84509860,5.00666671e-03,5.82161484,-4.58268949,-1,-0.9916710292058938
3.35516685e+02,2.99997695e+01,-5.26435152e-07,4.52893969,3.65984481,2.46745737,-2.84509860,5.01926535e-03,5.82637668,-4.56423716,-1,-0.9912518212321814
3.48095221e+02,2.99997630e+01,-5.24366407e-07,4.52858475,3.66014370,2.46668212,-2.84509860,5.03484707e-03,5.83129465,-4.54527554,-1,-0.9908171935836817
3.61162211e+02,2.99997561e+01,-5.23115152e-07,4.52864254,3.66044193,2.46611457,-2.84509860,5.05412959e-03,5.83638669,-4.52575548,-1,-0.9903656883261011
3.74724311e+02,2.99997490e+01,-5.22758628e-07,4.52917691,3.66074196,2.46578168,-2.84509860,5.07758146e-03,5.84165945,-4.50566347,-1,-0.9898970754738806
3.88779373e+02,2.99997417e+01,-5.23407343e-07,4.53022704,3.66104171,2.46570725,-2.84509860,5.10570608e-03,5.84711647,-4.48500142,-1,-0.9894114292471198
4.03340010e+02,2.99997340e+01,-5.25198935e-07,4.53186421,3.66134120,2.46592686,-2.84509859,5.13915179e-03,5.85276761,-4.46375047,-1,-0.9889083138273311
4.18415968e+02,2.99997261e+01,-5.28327575e-07,4.53416616,3.66164065,2.46647893,-2.84509859,5.17901693e-03,5.85862182,-4.44189562,-1,-0.9883873924598191
4.34013583e+02,2.99997178e+01,-5.33032267e-07,4.53722091,3.66194076,2.46740609,-2.84509859,5.22671289e-03,5.86468776,-4.41942116,-1,-0.9878484462160231
4.50174388e+02,2.99997090e+01,-5.39786154e-07,4.54118864,3.66224135,2.46878878,-2.84509859,5.28497177e-03,5.87099319,-4.39626247,-1,-0.9872900400012609
4.66908208e+02,2.99996999e+01,-5.49063880e-07,4.54621686,3.66254328,2.47069902,-2.84509859,5.35649913e-03,5.87755319,-4.37240006,-1,-0.9867118343311402
4.84144217e+02,2.99996903e+01,-5.61012128e-07,4.55230665,3.66284725,2.47313598,-2.84509859,5.44223618e-03,5.88434553,-4.34791080,-1,-0.9861162764648521
5.01971908e+02,2.99996800e+01,-5.76785458e-07,4.55983758,3.66315135,2.47629324,-2.84509859,5.54766651e-03,5.89142586,-4.32266320,-1,-0.9855002741401374
5.20296742e+02,2.99996692e+01,-5.96620003e-07,4.56882261,3.66345628,2.48017589,-2.84509859,5.67335228e-03,5.89876810,-4.29675333,-1,-0.9848670939742925
5.39107190e+02,2.99996576e+01,-6.21531862e-07,4.57951410,3.66375921,2.48491578,-2.84509858,5.82321017e-03,5.90638752,-4.27017374,-1,-0.9842171343302238
5.58341846e+02,2.99996452e+01,-6.52663343e-07,4.59215089,3.66406662,2.49061935,-2.84509858,6.00221089e-03,5.91428067,-4.24297476,-1,-0.9835525169767433
5.77906060e+02,2.99996320e+01,-6.91575866e-07,4.60703850,3.66439062,2.49741517,-2.84509858,6.21745198e-03,5.92243403,-4.21524802,-1,-0.9828765123665436
5.97642504e+02,2.99996177e+01,-7.40418237e-07,4.62456478,3.66474574,2.50546806,-2.84509857,6.47815282e-03,5.93081112,-4.18716496,-1,-0.9821945566726962
6.17138704e+02,2.99996025e+01,-8.03154947e-07,4.64583833,3.66519832,2.51519968,-2.84509857,6.80345738e-03,5.93926398,-4.15925049,-1,-0.9815209021583172
6.35373727e+02,2.99995868e+01,-8.91200950e-07,4.67280147,3.66599871,2.52708046,-2.84509856,7.28638352e-03,5.94739020,-4.13282794,-1,-0.9808908252426232
6.52455719e+02,2.99995704e+01,-1.00778242e-06,4.70337956,3.66731537,2.53973620,-2.84509855,7.99773664e-03,5.95524502,-4.10767278,-1,-0.9803005891440303
6.70361358e+02,2.99995509e+01,-1.13459218e-06,4.73272898,3.66906204,2.55091756,-2.84509854,8.86196592e-03,5.96374466,-4.08087499,-1,-0.9796818934728129
6.90334020e+02,2.99995268e+01,-1.25107719e-06,4.75790188,3.67107383,2.55948044,-2.84509853,9.77416133e-03,5.97347448,-4.05066598,-1,-0.9789917757103532
7.11678892e+02,2.99994986e+01,-1.36127652e-06,4.78036093,3.67336544,2.56612673,-2.84509853,1.07863233e-02,5.98408435,-4.01815520,-1,-0.978254243812771
7.33768309e+02,2.99994671e+01,-1.47168716e-06,4.80158654,3.67608986,2.57129070,-2.84509852,1.20071917e-02,5.99524647,-3.98433626,-1,-0.9774909855633661
7.56337352e+02,2.99994323e+01,-1.58286300e-06,4.82203150,3.67936513,2.57496264,-2.84509852,1.35379757e-02,6.00680752,-3.94966495,-1,-0.9767111547398126
7.79196386e+02,2.99993946e+01,-1.69367374e-06,4.84187706,3.68322661,2.57716245,-2.84509851,1.54748535e-02,6.01867139,-3.91441025,-1,-0.9759213038227907
8.02311658e+02,2.99993540e+01,-1.80450194e-06,4.86125025,3.68757711,2.57814806,-2.84509851,1.79039690e-02,6.03078744,-3.87874848,-1,-0.9751225990837186
8.25692255e+02,2.99993102e+01,-1.91640355e-06,4.88028048,3.69230224,2.57821292,-2.84509851,2.09130265e-02,6.04317544,-3.84258835,-1,-0.9743147265384059
8.49358480e+02,2.99992633e+01,-2.03019266e-06,4.89900753,3.69734036,2.57750019,-2.84509850,2.46176715e-02,6.05578964,-3.80604283,-1,-0.973496984654882
8.73288321e+02,2.99992131e+01,-2.14577820e-06,4.91742628,3.70266885,2.57605259,-2.84509851,2.91505594e-02,6.06864806,-3.76901826,-1,-0.9726701340163976
8.97489540e+02,2.99991596e+01,-2.26185860e-06,4.93549679,3.70827081,2.57388393,-2.84509850,3.46750033e-02,6.08171507,-3.73167437,-1,-0.9718339064216446
9.21939264e+02,2.99991026e+01,-2.37796049e-06,4.95315857,3.71414179,2.57097286,-2.84509850,4.14459408e-02,6.09499011,-3.69398215,-1,-0.9709890922041088
9.46637067e+02,2.99990423e+01,-2.49240580e-06,4.97033477,3.72027883,2.56728687,-2.84509850,4.97885835e-02,6.10842799,-3.65610984,-1,-0.970135706083419
9.71559870e+02,2.99989786e+01,-2.60344163e-06,4.98692296,3.72668647,2.56276568,-2.84509850,6.01408855e-02,6.12200456,-3.61810401,-1,-0.9692745455110034
9.96678679e+02,2.99989117e+01,-2.70921741e-06,5.00284135,3.73336650,2.55736482,-2.84509849,7.30698221e-02,6.13567205,-3.58005359,-1,-0.9684066123199881
1.02197660e+03,2.99988417e+01,-2.80705012e-06,5.01796166,3.74032313,2.55101173,-2.84509849,8.93055878e-02,6.14938931,-3.54208819,-1,-0.9675324902507617
1.04740660e+03,2.99987691e+01,-2.89466335e-06,5.03219184,3.74755893,2.54365521,-2.84509849,1.09768537e-01,6.16312575,-3.50426022,-1,-0.9666538044401598
1.07291282e+03,2.99986941e+01,-2.97021197e-06,5.04545776,3.75507161,2.53526282,-2.84509849,1.35695259e-01,6.17686491,-3.46657431,-1,-0.9657724849908443
1.09849586e+03,2.99986172e+01,-3.03154972e-06,5.05768001,3.76284865,2.52581986,-2.84509849,1.68874091e-01,6.19052002,-3.42926547,-1,-0.9648885111709442
1.12412744e+03,2.99985388e+01,-3.07700352e-06,5.06877723,3.77087941,2.51530695,-2.84509849,2.11679972e-01,6.20406325,-3.39238159,-1,-0.9640028601426583
1.14978411e+03,2.99984595e+01,-3.10524617e-06,5.07870041,3.77914885,2.50372966,-2.84509849,2.67024663e-01,6.21745660,-3.35599937,-1,-0.9631163421766223
1.17544630e+03,2.99983796e+01,-3.11605041e-06,5.08744997,3.78763554,2.49113105,-2.84509849,3.39137012e-01,6.23069528,-3.32010166,-1,-0.9622296334773707
1.20115860e+03,2.99982995e+01,-3.10962576e-06,5.09502011,3.79631038,2.47756644,-2.84509851,4.35104633e-01,6.24374388,-3.28477267,-1,-0.9613411933213368
1.22695348e+03,2.99982196e+01,-3.08651682e-06,5.10141670,3.80514694,2.46309161,-2.84509854,5.63938670e-01,6.25659322,-3.25002157,-1,-0.9604498997687541
1.25286632e+03,2.99981401e+01,-3.04831036e-06,5.10670929,3.81411780,2.44779620,-2.84509854,7.39426633e-01,6.26926320,-3.21577796,-1,-0.9595545303302799
1.27895673e+03,2.99980613e+01,-2.99684601e-06,5.11097838,3.82319512,2.43177611,-2.84509852,9.81240344e-01,6.28177187,-3.18198492,-1,-0.9586530252945038
1.30531140e+03,2.99979833e+01,-2.93421631e-06,5.11430610,3.83235123,2.41512774,-2.84509849,1.31815671,6.29412455,-3.14862455,-1,-0.9577423892515586
1.33199675e+03,2.99979060e+01,-2.86229235e-06,5.11679247,3.84156399,2.39794541,-2.84509850,1.79461123,6.30635344,-3.11559432,-1,-0.9568203271832949
1.35907869e+03,2.99978297e+01,-2.78308373e-06,5.11852720,3.85081676,2.38030723,-2.84509849,2.46826309,6.31846682,-3.08288092,-1,-0.9558845616936539
1.38662217e+03,2.99977544e+01,-2.69829923e-06,5.11958969,3.86009595,2.36228009,-2.84509847,3.40013075,6.33045770,-3.05052133,-1,-0.9549328485575705
1.41466824e+03,2.99976801e+01,-2.60979881e-06,5.12008990,3.86939161,2.34393887,-2.84509846,4.65131115,6.34235367,-3.01845075,-1,-0.9539637693695191
1.44329545e+03,2.99976069e+01,-2.51859455e-06,5.12006442,3.87869340,2.32532256,-2.84509846,6.24162998,6.35413922,-2.98674540,-1,-0.9529746099820193
1.47255034e+03,2.99975348e+01,-2.42611875e-06,5.11959785,3.88799391,2.30648825,-2.84509848,8.10953896,6.36583446,-2.95538049,-1,-0.9519637622929229
1.50250807e+03,2.99974638e+01,-2.33322435e-06,5.11873100,3.89728458,2.28747349,-2.84509849,1.00969870e+01,6.37744465,-2.92437759,-1,-0.9509286292898225
1.53326001e+03,2.99973937e+01,-2.24056114e-06,5.11749052,3.90655414,2.26831414,-2.84509849,1.20175068e+01,6.38897744,-2.89373439,-1,-0.949866053854255
1.56492355e+03,2.99973244e+01,-2.14858439e-06,5.11588227,3.91578867,2.24904094,-2.84509849,1.37432737e+01,6.40043938,-2.86342966,-1,-0.9487719797956067
1.59762240e+03,2.99972559e+01,-2.05763585e-06,5.11390797,3.92497358,2.22968397,-2.84509849,1.52363266e+01,6.41183007,-2.83341089,-1,-0.9476421325475533
1.63150383e+03,2.99971880e+01,-1.96794969e-06,5.11153849,3.93409163,2.21026313,-2.84509850,1.65001359e+01,6.42311891,-2.80363445,-1,-0.9464714234722916
1.66667449e+03,2.99971206e+01,-1.87967354e-06,5.10877483,3.94312955,2.19080546,-2.84509849,1.75198618e+01,6.43428593,-2.77394016,-1,-0.945256167479704
1.70325711e+03,2.99970537e+01,-1.79303070e-06,5.10560638,3.95207211,2.17133612,-2.84509851,1.82822246e+01,6.44528762,-2.74416576,-1,-0.9439921238655222
1.74136867e+03,2.99969872e+01,-1.70829491e-06,5.10203739,3.96090454,2.15188678,-2.84509852,1.87966452e+01,6.45610671,-2.71410963,-1,-0.9426752506059113
1.78108373e+03,2.99969213e+01,-1.62600572e-06,5.09813036,3.96961831,2.13250572,-2.84509853,1.91092984e+01,6.46678029,-2.68351718,-1,-0.941302971420335
1.82250206e+03,2.99968559e+01,-1.54650619e-06,5.09392158,3.97820386,2.11323022,-2.84509853,1.92657324e+01,6.47736914,-2.65229828,-1,-0.9398718389441326
1.86568825e+03,2.99967911e+01,-1.47022839e-06,5.08949207,3.98665880,2.09410558,-2.84509859,1.93030297e+01,6.48797704,-2.62039373,-1,-0.938379621391362
1.91071264e+03,2.99967268e+01,-1.39753723e-06,5.08491365,3.99498195,2.07517007,-2.84509866,1.92488989e+01,6.49869135,-2.58782822,-1,-0.936823888295648
1.95766812e+03,2.99966636e+01,-1.27632892e-06,5.08024563,4.00317031,2.05645935,-2.84509882,1.83738079e+01,6.50955314,-2.55466085,-1,-0.9352014300177871
2.00664357e+03,2.99966096e+01,-9.87079638e-07,5.07556563,4.01122280,2.03801437,-2.84509856,1.48028549e+01,6.52058294,-2.52090326,-1,-0.9335091754765821
2.05769123e+03,2.99965673e+01,-7.24242422e-07,5.07096776,4.01914305,2.01987494,-2.84509857,1.12786167e+01,6.53179148,-2.48654698,-1,-0.9317453196171077
2.11085886e+03,2.99965364e+01,-4.85576247e-07,5.06655717,4.02693671,2.00208232,-2.84509860,7.82787040,6.54318217,-2.45158674,-1,-0.9299082121824112
2.16623340e+03,2.99965167e+01,-2.68896021e-07,5.06241934,4.03460488,1.98467706,-2.84509872,4.47465677,6.55474515,-2.41606751,-1,-0.9279948491243456
2.22381994e+03,2.99965080e+01,-7.34130143e-08,5.05871376,4.04216240,1.96770924,-2.84509869,1.25759753,6.56648954,-2.37995661,-1,-0.9260050545675363
2.28367964e+03,2.99965046e+01,-5.68170232e-08,5.05551929,4.04961243,1.95121194,-2.84509891,1.00141558,6.57838939,-2.34335630,-1,-0.9239367152432387
2.34578614e+03,2.99965011e+01,-5.70829741e-08,5.05300615,4.05697421,1.93523181,-2.84509889,1.03338973,6.59044835,-2.30626445,-1,-0.9217907419716639
2.41007848e+03,2.99964974e+01,-5.75676156e-08,5.05130106,4.06426670,1.91979429,-2.84509890,1.06870806,6.60265269,-2.26873873,-1,-0.9195692411109326
2.47644947e+03,2.99964935e+01,-5.83130464e-08,5.05051724,4.07151235,1.90491108,-2.84509891,1.10768147,6.61499344,-2.23081995,-1,-0.9172759164098473
2.54482740e+03,2.99964895e+01,-5.93511971e-08,5.05069779,4.07872713,1.89057178,-2.84509888,1.15058180,6.62744485,-2.19261688,-1,-0.9149132456725554
2.61506881e+03,2.99964853e+01,-6.07068374e-08,5.05186541,4.08593226,1.87674535,-2.84509885,1.19801886,6.63999617,-2.15417208,-1,-0.9124861858894775
2.68705435e+03,2.99964808e+01,-6.23937023e-08,5.05397182,4.09314407,1.86337492,-2.84509883,1.25094216,6.65263250,-2.11555031,-1,-0.90999886097534
2.76068334e+03,2.99964762e+01,-6.44124378e-08,5.05692247,4.10037574,1.85038692,-2.84509884,1.31022923,6.66534367,-2.07679643,-1,-0.9074547497381418
2.83590899e+03,2.99964712e+01,-6.67586289e-08,5.06060020,4.10763793,1.83770139,-2.84509881,1.37669003,6.67812386,-2.03794419,-1,-0.9048554689183106
2.91266908e+03,2.99964660e+01,-6.94110822e-08,5.06485330,4.11493776,1.82522829,-2.84509873,1.45029560,6.69096754,-1.99901276,-1,-0.902203168410897
2.99096454e+03,2.99964604e+01,-7.23510265e-08,5.06954574,4.12228073,1.81288857,-2.84509876,1.53089806,6.70387264,-1.96001496,-1,-0.8994978160815006
3.07081434e+03,2.99964545e+01,-7.55564445e-08,5.07454816,4.12967036,1.80061050,-2.84509881,1.61825514,6.71683483,-1.92096038,-1,-0.896738756457458
3.15223129e+03,2.99964481e+01,-7.90020004e-08,5.07974554,4.13710771,1.78833451,-2.84509882,1.71241905,6.72985441,-1.88184780,-1,-0.8939255469133178
3.23528503e+03,2.99964414e+01,-8.26698419e-08,5.08504649,4.14459413,1.77601214,-2.84509886,1.81407641,6.74292957,-1.84268107,-1,-0.891055781169888
3.31999450e+03,2.99964342e+01,-8.65364769e-08,5.09037321,4.15212819,1.76360738,-2.84509888,1.92389379,6.75605854,-1.80345951,-1,-0.8881288047910988
3.40642511e+03,2.99964265e+01,-9.05854078e-08,5.09566617,4.15970916,1.75109192,-2.84509891,2.04263460,6.76923593,-1.76419696,-1,-0.8851423576574508
3.49464074e+03,2.99964183e+01,-9.48012135e-08,5.10087731,4.16733553,1.73844475,-2.84509892,2.17060078,6.78245964,-1.72489347,-1,-0.8820942325157163
3.58468609e+03,2.99964095e+01,-9.91673570e-08,5.10597065,4.17500488,1.72565272,-2.84509906,2.30783042,6.79572476,-1.68555814,-1,-0.8789828848414857
3.67662617e+03,2.99964001e+01,-1.03670185e-07,5.11091759,4.18271487,1.71270621,-2.84509899,2.45443322,6.80902684,-1.64619521,-1,-0.8758060683365071
3.77053060e+03,2.99963901e+01,-1.08296675e-07,5.11569580,4.19046285,1.69959935,-2.84509948,2.61063146,6.82236127,-1.60681283,-1,-0.8725613774126509
3.86647649e+03,2.99963795e+01,-1.13033861e-07,5.12028716,4.19824587,1.68632898,-2.84509905,2.77660969,6.83572451,-1.56741383,-1,-0.869246147678928
3.96450508e+03,2.99963681e+01,-1.17873077e-07,5.12468463,4.20606258,1.67289430,-2.84509919,2.95257658,6.84911510,-1.52799011,-1,-0.8658589541647199
