star_age,star_mass,star_mdot,log_L,log_Teff,log_R,log_surf_z,v_wind_Km_per_s,log_center_T,log_center_Rho,phase,x
1.25787144e+02,3.99998984e+01,-1.59590467e-06,4.83867302,3.67826065,2.58549237,-2.84509852,1.41664145e-02,5.95318762,-4.35846369,-1,-1.0
1.29506660e+02,3.99998920e+01,-1.72759274e-06,4.85526684,3.67975645,2.59079767,-2.84509852,1.54465616e-02,5.95519126,-4.35115333,-1,-0.9998327714957533
1.33438688e+02,3.99998848e+01,-1.83897790e-06,4.86979971,3.68116267,2.59525166,-2.84509852,1.65963807e-02,5.95734847,-4.34335189,-1,-0.9996559885054137
1.37547261e+02,3.99998768e+01,-1.93447437e-06,4.88295962,3.68251233,2.59913229,-2.84509852,1.76474163e-02,5.95963955,-4.33513269,-1,-0.9994712680962587
1.41818792e+02,3.99998682e+01,-2.02277545e-06,4.89526317,3.68385086,2.60260703,-2.84509852,1.86844656e-02,5.96206053,-4.32652232,-1,-0.9992792211363927
1.46252208e+02,3.99998587e+01,-2.10960036e-06,4.90701503,3.68520272,2.60577923,-2.84509852,1.97671101e-02,5.96460875,-4.31753302,-1,-0.9990798958676257
1.50833241e+02,3.99998486e+01,-2.19691744e-06,4.91841185,3.68657518,2.60873272,-2.84509852,2.09130397e-02,5.96727875,-4.30818463,-1,-0.9988739337756506
1.55554406e+02,3.99998377e+01,-2.28573727e-06,4.92954772,3.68796850,2.61151400,-2.84509851,2.21312415e-02,5.97006732,-4.29848498,-1,-0.9986616713841858
1.60411509e+02,3.99998262e+01,-2.37642144e-06,4.94047733,3.68938177,2.61415227,-2.84509851,2.34248898e-02,5.97297112,-4.28844492,-1,-0.9984432972544167
1.65447313e+02,3.99998136e+01,-2.46927437e-06,4.95119809,3.69081848,2.61663923,-2.84509851,2.48169923e-02,5.97602116,-4.27798188,-1,-0.9982168887726144
1.70656544e+02,3.99998001e+01,-2.56418902e-06,4.96177480,3.69228288,2.61899879,-2.84509851,2.63126543e-02,5.97922069,-4.26708579,-1,-0.997982683056493
1.76006484e+02,3.99997858e+01,-2.66120606e-06,4.97225667,3.69377079,2.62126390,-2.84509851,2.79012919e-02,5.98254019,-4.25584408,-1,-0.9977421510991067
1.81496602e+02,3.99997706e+01,-2.76052180e-06,4.98265557,3.69528264,2.62343967,-2.84509851,2.95870892e-02,5.98597845,-4.24426128,-1,-0.9974953167740822
1.87219010e+02,3.99997540e+01,-2.86366939e-06,4.99295522,3.69683425,2.62548626,-2.84509850,3.14441171e-02,5.98960960,-4.23213171,-1,-0.9972380387490571
1.93097415e+02,3.99997364e+01,-2.96945941e-06,5.00321275,3.69841605,2.62745143,-2.84509850,3.34276595e-02,5.99337716,-4.21961581,-1,-0.9969737471381308
1.99127985e+02,3.99997178e+01,-3.07794948e-06,5.01343582,3.70002766,2.62933975,-2.84509850,3.55399220e-02,5.99727581,-4.20673046,-1,-0.9967026142270599
2.05349414e+02,3.99996978e+01,-3.19004884e-06,5.02362770,3.70167734,2.63113632,-2.84509850,3.78232917e-02,6.00133530,-4.19339514,-1,-0.9964229003433324
2.11794766e+02,3.99996763e+01,-3.30666538e-06,5.03380702,3.70337626,2.63282815,-2.84509850,4.03329890e-02,6.00559151,-4.17951237,-1,-0.9961331189378206
2.18408289e+02,3.99996535e+01,-3.42676325e-06,5.04398660,3.70511267,2.63444511,-2.84509850,4.30272311e-02,6.00999306,-4.16522832,-1,-0.9958357766064283
2.25198330e+02,3.99996293e+01,-3.55049281e-06,5.05417203,3.70688913,2.63598491,-2.84509850,4.59247225e-02,6.01454688,-4.15052559,-1,-0.9955304980701339
2.32200263e+02,3.99996035e+01,-3.67844595e-06,5.06437363,3.70871525,2.63743347,-2.84509850,4.90833750e-02,6.01928451,-4.13532024,-1,-0.9952156929227907
2.39439082e+02,3.99995756e+01,-3.81146717e-06,5.07460442,3.71059903,2.63878130,-2.84509850,5.25724650e-02,6.02422800,-4.11955757,-1,-0.9948902374404424
2.46872135e+02,3.99995461e+01,-3.94938412e-06,5.08486485,3.71253077,2.64004804,-2.84509850,5.63683107e-02,6.02933754,-4.10334759,-1,-0.9945560492462858
2.54509586e+02,3.99995148e+01,-4.09193767e-06,5.09516073,3.71451475,2.64122802,-2.84509850,6.05047684e-02,6.03462280,-4.08666720,-1,-0.9942126713694365
2.62359562e+02,3.99994814e+01,-4.23887661e-06,5.10549811,3.71655552,2.64231517,-2.84509850,6.50214199e-02,6.04009314,-4.06949351,-1,-0.9938597384220175
2.70429626e+02,3.99994460e+01,-4.39069509e-06,5.11588299,3.71865772,2.64330321,-2.84509850,6.99759170e-02,6.04575748,-4.05180306,-1,-0.9934969103734501
2.78735124e+02,3.99994082e+01,-4.54723471e-06,5.12631982,3.72082660,2.64418386,-2.84509850,7.54402704e-02,6.05162493,-4.03357641,-1,-0.9931234972714326
2.87288465e+02,3.99993678e+01,-4.70873770e-06,5.13681171,3.72306843,2.64494614,-2.84509850,8.15062994e-02,6.05770554,-4.01478935,-1,-0.9927389412104446
2.96072342e+02,3.99993249e+01,-4.87673798e-06,5.14735486,3.72538024,2.64559410,-2.84509850,8.82373106e-02,6.06398354,-3.99548871,-1,-0.992344020308855
3.05092430e+02,3.99992792e+01,-5.05030106e-06,5.15794857,3.72776611,2.64611922,-2.84509850,9.57105865e-02,6.07046346,-3.97566756,-1,-0.9919384794200907
3.14353915e+02,3.99992308e+01,-5.22921859e-06,5.16859007,3.73022924,2.64651371,-2.84509850,1.04027000e-01,6.07714853,-3.95532018,-1,-0.9915220853828952
3.23860139e+02,3.99991793e+01,-5.41421755e-06,5.17927353,3.73277534,2.64676323,-2.84509851,1.13329191e-01,6.08404049,-3.93444574,-1,-0.991094687941789
3.33614291e+02,3.99991247e+01,-5.60551238e-06,5.18999196,3.73540854,2.64685606,-2.84509851,1.23767097e-01,6.09114031,-3.91304379,-1,-0.9906561437201337
3.43619007e+02,3.99990668e+01,-5.80221914e-06,5.20073713,3.73813380,2.64677812,-2.84509851,1.35490840e-01,6.09844795,-3.89112529,-1,-0.9902063342040318
3.53875286e+02,3.99990054e+01,-6.00444525e-06,5.21150071,3.74095597,2.64651557,-2.84509850,1.48697665e-01,6.10596103,-3.86869981,-1,-0.9897452144786949
3.64409310e+02,3.99989400e+01,-6.21218728e-06,5.22226989,3.74389159,2.64602891,-2.84509850,1.63806814e-01,6.11369866,-3.84572256,-1,-0.9892716074079849
3.75201417e+02,3.99988708e+01,-6.42436850e-06,5.23302638,3.74693926,2.64531182,-2.84509850,1.80994908e-01,6.12164172,-3.82225060,-1,-0.988786396990479
3.86245688e+02,3.99987977e+01,-6.64156663e-06,5.24375224,3.75010256,2.64434815,-2.84509850,2.00599889e-01,6.12978094,-3.79830610,-1,-0.988289849342929
3.97537697e+02,3.99987206e+01,-6.86096285e-06,5.25442797,3.75338683,2.64311748,-2.84509850,2.22940637e-01,6.13810789,-3.77391045,-1,-0.987782163457182
4.09110157e+02,3.99986389e+01,-7.08061244e-06,5.26501854,3.75681994,2.64154654,-2.84509850,2.49022633e-01,6.14664390,-3.74902085,-1,-0.9872618685649824
4.20926601e+02,3.99985531e+01,-7.30099666e-06,5.27552266,3.76039813,2.63964222,-2.84509850,2.79195537e-01,6.15535627,-3.72372454,-1,-0.9867306042134822
4.32991108e+02,3.99984628e+01,-7.52065756e-06,5.28590378,3.76414071,2.63734762,-2.84509850,3.14511209e-01,6.16424033,-3.69803832,-1,-0.986188187011867
4.45295957e+02,3.99983681e+01,-7.73613958e-06,5.29611396,3.76805713,2.63461987,-2.84509851,3.55854581e-01,6.17328202,-3.67199026,-1,-0.9856349640943552
4.57842689e+02,3.99982689e+01,-7.94588301e-06,5.30609810,3.77216724,2.63139171,-2.84509851,4.04955352e-01,6.18247357,-3.64560666,-1,-0.9850708661779748
4.70607402e+02,3.99981655e+01,-8.14557252e-06,5.31582306,3.77647163,2.62764542,-2.84509851,4.62991891e-01,6.19179088,-3.61894915,-1,-0.9844969678906363
4.83583278e+02,3.99980580e+01,-8.33218758e-06,5.32523596,3.78098413,2.62332687,-2.84509851,5.32484993e-01,6.20121904,-3.59206223,-1,-0.9839135757679057
4.96758194e+02,3.99979465e+01,-8.50401886e-06,5.33428911,3.78571454,2.61839263,-2.84509851,6.16907476e-01,6.21073958,-3.56498661,-1,-0.9833212348568153
5.10115695e+02,3.99978314e+01,-8.65629590e-06,5.34293173,3.79066969,2.61280363,-2.84509852,7.20596244e-01,6.22032911,-3.53778183,-1,-0.9827206849700281
5.23635971e+02,3.99977130e+01,-8.78617602e-06,5.35111193,3.79585412,2.60652488,-2.84509853,8.48976472e-01,6.22996176,-3.51051673,-1,-0.9821128167601636
5.37297870e+02,3.99975919e+01,-8.89042156e-06,5.35878285,3.80126975,2.59952908,-2.84509854,1.00824894,6.23961238,-3.48325385,-1,-0.9814985812158241
5.51079704e+02,3.99974686e+01,-8.96803996e-06,5.36591041,3.80691623,2.59179990,-2.84509858,1.20638685,6.24925626,-3.45605935,-1,-0.9808789534240373
5.64973386e+02,3.99973435e+01,-9.01610372e-06,5.37243679,3.81279489,2.58330577,-2.84509858,1.46072127,6.25887118,-3.42898727,-1,-0.9802542969742898
5.78961592e+02,3.99972172e+01,-9.03496139e-06,5.37836385,3.81888555,2.57408798,-2.84509860,1.78754854,6.26843891,-3.40207577,-1,-0.9796253907492664
5.93035449e+02,3.99970901e+01,-9.02432134e-06,5.38367683,3.82517461,2.56416635,-2.84509850,2.21224677,6.27794634,-3.37535642,-1,-0.9789926336768162
6.07191798e+02,3.99969627e+01,-8.98389540e-06,5.38835229,3.83165221,2.55354888,-2.84509849,2.77454860,6.28737835,-3.34886825,-1,-0.9783561677847851
6.21425783e+02,3.99968356e+01,-8.91436369e-06,5.39238406,3.83830620,2.54225679,-2.84509849,3.52283638,6.29671974,-3.32265060,-1,-0.9777162113977123
6.35729300e+02,3.99967090e+01,-8.81773038e-06,5.39580160,3.84511922,2.53033951,-2.84509848,4.50088726,6.30596241,-3.29671775,-1,-0.9770731288694003
6.50102867e+02,3.99965835e+01,-8.69593839e-06,5.39862459,3.85207739,2.51783467,-2.84509848,5.77338294,6.31509780,-3.27108153,-1,-0.9764268969106994
6.64555925e+02,3.99964593e+01,-8.55132226e-06,5.40088076,3.85916410,2.50478933,-2.84509848,7.42362862,6.32412540,-3.24574954,-1,-0.9757770910566231
6.79105579e+02,3.99963366e+01,-8.38655873e-06,5.40260135,3.86636192,2.49125398,-2.84509848,9.52238026,6.33304986,-3.22071493,-1,-0.9751229422706718
6.93792743e+02,3.99962155e+01,-8.20423208e-06,5.40381284,3.87364678,2.47729002,-2.84509848,1.20947526e+01,6.34188079,-3.19594692,-1,-0.9744626110696915
7.08605297e+02,3.99960961e+01,-8.00831727e-06,5.40458367,3.88101399,2.46294101,-2.84509848,1.50722104e+01,6.35062161,-3.17143622,-1,-0.9737966423658351
7.23571086e+02,3.99959786e+01,-7.80145234e-06,5.40495153,3.88844796,2.44825700,-2.84509848,1.83194232e+01,6.35927412,-3.14718350,-1,-0.973123784254903
7.38720536e+02,3.99958628e+01,-7.58631251e-06,5.40495925,3.89593363,2.43328953,-2.84509848,2.16372343e+01,6.36785193,-3.12315922,-1,-0.9724426687915848
7.54090207e+02,3.99957487e+01,-7.36551591e-06,5.40464642,3.90345576,2.41808884,-2.84509848,2.48170353e+01,6.37637031,-3.09933724,-1,-0.9717516522474716
7.69721661e+02,3.99956362e+01,-7.14142126e-06,5.40404923,3.91099909,2.40270358,-2.84509849,2.77103581e+01,6.38484264,-3.07568393,-1,-0.9710488660054927
7.85659600e+02,3.99955251e+01,-6.91610886e-06,5.40319814,3.91854891,2.38717839,-2.84509848,3.02751438e+01,6.39328299,-3.05216636,-1,-0.9703323002749662
8.01947209e+02,3.99954152e+01,-6.69123889e-06,5.40211695,3.92609244,2.37155075,-2.84509849,3.25195473e+01,6.40170269,-3.02875929,-1,-0.9696000134691494
8.18624615e+02,3.99953064e+01,-6.46813013e-06,5.40082417,3.93361910,2.35585104,-2.84509849,3.44605268e+01,6.41011173,-3.00545174,-1,-0.9688502014882103
8.35728578e+02,3.99951986e+01,-6.24775879e-06,5.39933314,3.94112029,2.34010314,-2.84509849,3.60882551e+01,6.41851114,-2.98224028,-1,-0.9680812116117908
8.53295053e+02,3.99950918e+01,-6.03079806e-06,5.39765168,3.94858824,2.32432651,-2.84509850,3.73927092e+01,6.42689856,-2.95912036,-1,-0.9672914273121301
8.71359841e+02,3.99949857e+01,-5.81769989e-06,5.39578314,3.95601556,2.30853761,-2.84509851,3.83718469e+01,6.43526989,-2.93607993,-1,-0.966479238985269
8.89959857e+02,3.99948804e+01,-5.60882012e-06,5.39372818,3.96339485,2.29275153,-2.84509851,3.90576878e+01,6.44361971,-2.91310102,-1,-0.965642986942088
9.09132312e+02,3.99947759e+01,-5.40445692e-06,5.39148585,3.97071889,2.27698230,-2.84509851,3.94963195e+01,6.45193838,-2.89015426,-1,-0.9647809981853824
9.28913419e+02,3.99946719e+01,-5.20481390e-06,5.38905630,3.97798084,2.26124362,-2.84509851,3.97315542e+01,6.46021767,-2.86719391,-1,-0.9638916445877763
9.49340069e+02,3.99945686e+01,-5.01004593e-06,5.38643882,3.98517380,2.24554896,-2.84509853,3.98017364e+01,6.46844732,-2.84415990,-1,-0.9629732675391844
9.70444955e+02,3.99944659e+01,-4.82031455e-06,5.38364178,3.99229235,2.22991334,-2.84509855,3.97406676e+01,6.47662570,-2.82097515,-1,-0.962024397170546
9.92256363e+02,3.99943638e+01,-4.63601448e-06,5.38068254,3.99933268,2.21435306,-2.84509856,3.95807680e+01,6.48476065,-2.79755472,-1,-0.9610437617504124
1.01480582e+03,3.99942661e+01,-4.18283267e-06,5.37757487,4.00629058,2.19888343,-2.84509858,3.69108347e+01,6.49286358,-2.77383520,-1,-0.9600299438327896
1.03812539e+03,3.99941832e+01,-3.35929637e-06,5.37433574,4.01316257,2.18351988,-2.84509861,3.06017960e+01,6.50095733,-2.74978836,-1,-0.9589815018282988
1.06223158e+03,3.99941163e+01,-2.59346109e-06,5.37100330,4.01995025,2.16827830,-2.84509865,2.43496645e+01,6.50908287,-2.72535820,-1,-0.95789769358637
1.08715489e+03,3.99940652e+01,-1.88236643e-06,5.36759622,4.02665202,2.15317123,-2.84509869,1.81844814e+01,6.51726546,-2.70055989,-1,-0.956777147834671
1.11292233e+03,3.99940296e+01,-1.22355795e-06,5.36414225,4.03326775,2.13821277,-2.84509872,1.21430438e+01,6.52553004,-2.67539580,-1,-0.9556186502103925
1.13956281e+03,3.99940094e+01,-6.14159321e-07,5.36066880,4.03979722,2.12341712,-2.84509881,6.25434675,6.53389193,-2.64987302,-1,-0.9544209009272027
1.16710720e+03,3.99940023e+01,-1.78228601e-07,5.35720205,4.04623991,2.10879835,-2.84509896,1.86419146,6.54235728,-2.62399831,-1,-0.9531825120776622
1.19557536e+03,3.99939972e+01,-1.77916656e-07,5.35378062,4.05259886,2.09436974,-2.84509874,1.90945838,6.55093578,-2.59775809,-1,-0.9519025907611643
1.22502884e+03,3.99939920e+01,-1.77612615e-07,5.35042353,4.05886947,2.08014999,-2.84509873,1.95625592,6.55962097,-2.57117722,-1,-0.9505783697051831
1.25547014e+03,3.99939866e+01,-1.77358401e-07,5.34719019,4.06505982,2.06615261,-2.84509915,2.00426945,6.56842504,-2.54422406,-1,-0.9492097365103469
1.28691904e+03,3.99939810e+01,-1.77188960e-07,5.34411030,4.07117214,2.05238802,-2.84509927,2.05318105,6.57734208,-2.51691508,-1,-0.9477958018728286
1.31939626e+03,3.99939752e+01,-1.77139383e-07,5.34122369,4.07721023,2.03886853,-2.84509900,2.10273223,6.58637202,-2.48925590,-1,-0.9463356342266376
1.35291605e+03,3.99939693e+01,-1.77247746e-07,5.33857452,4.08317948,2.02560545,-2.84509877,2.15310912,6.59551542,-2.46124542,-1,-0.9448285928953561
1.38749094e+03,3.99939632e+01,-1.77558719e-07,5.33620484,4.08908544,2.01260869,-2.84509882,2.20511468,6.60477082,-2.43289301,-1,-0.9432741145333345
1.42315688e+03,3.99939568e+01,-1.78112295e-07,5.33416178,4.09493234,1.99989335,-2.84509887,2.25959339,6.61413799,-2.40420950,-1,-0.9416705828376107
1.45995370e+03,3.99939502e+01,-1.78963803e-07,5.33250272,4.10072617,1.98747618,-2.84509928,2.31769286,6.62361827,-2.37519229,-1,-0.9400162070613984
1.49782932e+03,3.99939434e+01,-1.80144771e-07,5.33125055,4.10647739,1.97534765,-2.84509898,2.38015947,6.63320252,-2.34586858,-1,-0.9383133287084043
1.53677984e+03,3.99939364e+01,-1.81695233e-07,5.33043219,4.11219283,1.96350759,-2.84509889,2.44747045,6.64288490,-2.31626202,-1,-0.9365621231216479
1.57684406e+03,3.99939290e+01,-1.83676307e-07,5.33010758,4.11788190,1.95196714,-2.84509891,2.52020874,6.65267291,-2.28636326,-1,-0.9347608458628837
1.61800486e+03,3.99939214e+01,-1.86136155e-07,5.33029728,4.12355478,1.94071623,-2.84509896,2.59887529,6.66255941,-2.25619117,-1,-0.9329102666430076
1.66018967e+03,3.99939134e+01,-1.89081618e-07,5.33097368,4.12921926,1.92972548,-2.84509902,2.68363185,6.67253254,-2.22579508,-1,-0.9310136481909751
1.70345428e+03,3.99939051e+01,-1.92582515e-07,5.33217811,4.13488534,1.91899554,-2.84509908,2.77575121,6.68259868,-2.19516354,-1,-0.9290684822024121
1.74774698e+03,3.99938964e+01,-1.96652381e-07,5.33387725,4.14056170,1.90849238,-2.84509920,2.87614268,6.69275003,-2.16432133,-1,-0.9270770935459185
1.79299194e+03,3.99938874e+01,-2.01277057e-07,5.33602524,4.14625610,1.89817758,-2.84509891,2.98527497,6.70298280,-2.13328364,-1,-0.9250428915192299
1.83931983e+03,3.99938779e+01,-2.06550987e-07,5.33862968,4.15197513,1.88804172,-2.84509962,3.10575320,6.71329493,-2.10206389,-1,-0.9229600012319978
1.88655515e+03,3.99938679e+01,-2.12367371e-07,5.34158509,4.15772188,1.87802594,-2.84509982,3.23649954,6.72367392,-2.07069418,-1,-0.9208363131201002
1.93483520e+03,3.99938574e+01,-2.18815622e-07,5.34489263,4.16350604,1.86811140,-2.84509989,3.37987846,6.73412913,-2.03916131,-1,-0.9186656542100553
1.98403713e+03,3.99938463e+01,-2.25810487e-07,5.34845754,4.16932732,1.85825128,-2.84509981,3.53479940,6.74464717,-2.00749485,-1,-0.9164535478069777
2.03424769e+03,3.99938347e+01,-2.33382852e-07,5.35224870,4.17519230,1.84841690,-2.84509974,3.70259166,6.75522975,-1.97569788,-1,-0.9141960936526771
2.08542174e+03,3.99938224e+01,-2.41479716e-07,5.35619949,4.18110121,1.83857448,-2.84509908,3.88286306,6.76587181,-1.94378199,-1,-0.9118953212302047
2.13758603e+03,3.99938094e+01,-2.50083784e-07,5.36026465,4.18705643,1.82869662,-2.84509901,4.07615291,6.77657059,-1.91175830,-1,-0.9095500278662859
2.19077190e+03,3.99937957e+01,-2.59169901e-07,5.36439645,4.19305993,1.81875551,-2.84509895,4.28300322,6.78732413,-1.87962972,-1,-0.9071588045223998
2.24493206e+03,3.99937813e+01,-2.68679274e-07,5.36855251,4.19910933,1.80873474,-2.84509910,4.50287329,6.79812719,-1.84740966,-1,-0.9047237773450573
2.30019409e+03,3.99937660e+01,-2.78619697e-07,5.37269382,4.20520986,1.79860434,-2.84509924,4.73749016,6.80897929,-1.81510312,-1,-0.9022392103695328
2.35643933e+03,3.99937498e+01,-2.88903671e-07,5.37679164,4.21135455,1.78836386,-2.84509911,4.98535561,6.81987082,-1.78272779,-1,-0.8997104385195944
2.41383245e+03,3.99937327e+01,-2.99540743e-07,5.38080953,4.21754877,1.77798437,-2.84509902,5.24884706,6.83080462,-1.75027908,-1,-0.8971300582734415
2.47229785e+03,3.99937147e+01,-3.10460913e-07,5.38472931,4.22378671,1.76746839,-2.84509953,5.52705668,6.84177218,-1.71777476,-1,-0.8945014685880676
2.53186223e+03,3.99936957e+01,-3.21631268e-07,5.38853222,4.23006692,1.75680941,-2.84509888,5.82044333,6.85277114,-1.68521780,-1,-0.8918234690381851
2.59266191e+03,3.99936756e+01,-3.33034163e-07,5.39218799,4.23639122,1.74598871,-2.84509923,6.13084556,6.86380029,-1.65261453,-1,-0.8890899307108662
2.65460862e+03,3.99936544e+01,-3.44609455e-07,5.39569709,4.24275296,1.73501979,-2.84509901,6.45681181,6.87485374,-1.61997528,-1,-0.8863048222031188
2.71775263e+03,3.99936320e+01,-3.56328691e-07,5.39904717,4.24915058,1.72389957,-2.84509947,6.79881970,6.88592960,-1.58730233,-1,-0.8834658833883813
2.78224517e+03,3.99936084e+01,-3.68167275e-07,5.40221443,4.25558443,1.71261551,-2.84509914,7.15876343,6.89702484,-1.55460487,-1,-0.8805663150038741
2.84801092e+03,3.99935836e+01,-3.80081673e-07,5.40520845,4.26204847,1.70118444,-2.84509915,7.53579223,6.90813673,-1.52188512,-1,-0.8776095034178611
2.91509880e+03,3.99935575e+01,-3.92043929e-07,5.40802462,4.26854018,1.68960910,-2.84509941,7.93090224,6.91926318,-1.48914708,-1,-0.8745932491994413
2.98357954e+03,3.99935300e+01,-4.04027277e-07,5.41065781,4.27505717,1.67789172,-2.84509904,8.34546232,6.93040206,-1.45639755,-1,-0.8715143723455965
3.05356520e+03,3.99935011e+01,-4.16003503e-07,5.41310019,4.28159710,1.66603304,-2.84509913,8.78150952,6.94155316,-1.42363509,-1,-0.8683678346668995
3.12502903e+03,3.99934706e+01,-4.27950240e-07,5.41536357,4.28815562,1.65404769,-2.84509931,9.23849345,6.95271299,-1.39086474,-1,-0.8651548388366251
3.19802800e+03,3.99934387e+01,-4.39847937e-07,5.41745036,4.29472988,1.64194257,-2.84509912,9.71690923,6.96388036,-1.35808643,-1,-0.8618728234978962
3.27262075e+03,3.99934053e+01,-4.51679339e-07,5.41936451,4.30131704,1.62972532,-2.84509913,1.02172098e+01,6.97505431,-1.32529939,-1,-0.8585191522110551
3.34886905e+03,3.99933701e+01,-4.63430980e-07,5.42111107,4.30791428,1.61740413,-2.84509924,1.07400501e+01,6.98623370,-1.29250608,-1,-0.8550910478124313
3.42686966e+03,3.99933333e+01,-4.75089856e-07,5.42269326,4.31451885,1.60498609,-2.84509943,1.12873056e+01,6.99741830,-1.25970384,-1,-0.851584159996751
3.50668428e+03,3.99932946e+01,-4.86649459e-07,5.42411947,4.32112795,1.59248099,-2.84509951,1.18606043e+01,7.00860716,-1.22689453,-1,-0.8479957147475259
3.58834626e+03,3.99932542e+01,-4.98106881e-07,5.42540046,4.32773888,1.57989962,-2.84509944,1.24614438e+01,7.01980031,-1.19407825,-1,-0.8443242126571405
3.67192283e+03,3.99932118e+01,-5.09461024e-07,5.42654466,4.33434921,1.56725106,-2.84509953,1.30922393e+01,7.03099840,-1.16124886,-1,-0.840566631081697
