star_age,star_mass,star_mdot,log_L,log_Teff,log_R,log_surf_z,v_wind_Km_per_s,log_center_T,log_center_Rho,phase,x
6.57276256e+01,6.99964304e+01,-3.92022397e-05,5.89798893,3.99851661,2.47463840,-2.84509848,1.44437009e+02,6.48736656,-3.03489361,-1,-1.0
6.77274614e+01,6.99963554e+01,-3.85030128e-05,5.89628622,4.00055059,2.46971908,-2.84509848,1.43388113e+02,6.48875799,-3.03104621,-1,-0.9998561113143694
6.97272972e+01,6.99962804e+01,-3.78037859e-05,5.89458350,4.00258458,2.46479975,-2.84509848,1.42339217e+02,6.49014943,-3.02719881,-1,-0.9997122226287387
7.18157786e+01,6.99962072e+01,-3.66374004e-05,5.89292820,4.00462056,2.45990013,-2.84509848,1.39387994e+02,6.49158400,-3.02322818,-1,-0.9995619558700328
7.39724513e+01,6.99961352e+01,-3.51116495e-05,5.89130937,4.00665809,2.45501566,-2.84509848,1.34973393e+02,6.49305175,-3.01916275,-1,-0.9994067827302487
7.61291240e+01,6.99960632e+01,-3.35858987e-05,5.88969054,4.00869561,2.45013120,-2.84509848,1.30558791e+02,6.49451949,-3.01509733,-1,-0.9992516095904648
7.84466549e+01,6.99959972e+01,-3.17588400e-05,5.88815135,4.01073945,2.44527392,-2.84509849,1.24624709e+02,6.49606277,-3.01081350,-1,-0.9990848626629872
8.07912605e+01,6.99959321e+01,-2.98810671e-05,5.88662556,4.01278435,2.44042122,-2.84509849,1.18434876e+02,6.49761875,-3.00649290,-1,-0.998916167704078
8.31358662e+01,6.99958671e+01,-2.80032941e-05,5.88509976,4.01482926,2.43556852,-2.84509849,1.12245044e+02,6.49917473,-3.00217231,-1,-0.9987474727379737
8.56478818e+01,6.99958101e+01,-2.57004286e-05,5.88362142,4.01688745,2.43071297,-2.84509849,1.03946065e+02,6.50081076,-2.99761724,-1,-0.9985667325877235
8.81859355e+01,6.99957544e+01,-2.33314466e-05,5.88215045,4.01894770,2.42585697,-2.84509849,9.53190402e+01,6.50245924,-2.99302571,-1,-0.9983841189896707
9.07985402e+01,6.99957021e+01,-2.11137741e-05,5.88070150,4.02101685,2.42099421,-2.84509849,8.71393387e+01,6.50414142,-2.98833291,-1,-0.9981961414285352
9.35154606e+01,6.99956547e+01,-1.91078217e-05,5.87928335,4.02309843,2.41612196,-2.84509849,7.95855545e+01,6.50587075,-2.98349843,-1,-0.9980006583267129
9.62672065e+01,6.99956087e+01,-1.71815458e-05,5.87787694,4.02518526,2.41124511,-2.84509849,7.23050299e+01,6.50761460,-2.97861907,-1,-0.9978026695214618
9.91775359e+01,6.99955692e+01,-1.56180901e-05,5.87652402,4.02729596,2.40634725,-2.84509849,6.62688399e+01,6.50942459,-2.97353533,-1,-0.9975932705937507
1.02087865e+02,6.99955298e+01,-1.40546345e-05,5.87517109,4.02940665,2.40144939,-2.84509849,6.02326499e+01,6.51123457,-2.96845160,-1,-0.9973838716876247
1.05154242e+02,6.99954972e+01,-1.25268908e-05,5.87385703,4.03154186,2.39652194,-2.84509849,5.41335201e+01,6.51310743,-2.96316681,-1,-0.9971632450960926
1.08295974e+02,6.99954679e+01,-1.10163927e-05,5.87256172,4.03368891,2.39158019,-2.84509849,4.80039963e+01,6.51501066,-2.95778494,-1,-0.9969371966934768
1.11437706e+02,6.99954385e+01,-9.50589459e-06,5.87126642,4.03583596,2.38663845,-2.84509849,4.18744726e+01,6.51691388,-2.95240307,-1,-0.996711148290861
1.14792449e+02,6.99954206e+01,-7.63253605e-06,5.86999032,4.03802100,2.38163032,-2.84509849,3.38439385e+01,6.51890619,-2.94673750,-1,-0.9964697736935573
1.18173796e+02,6.99954042e+01,-5.71385673e-06,5.86871663,4.04021078,2.37661390,-2.84509850,2.55759709e+01,6.52090961,-2.94103649,-1,-0.9962264849318044
1.21679714e+02,6.99953944e+01,-3.92498959e-06,5.86745089,4.04242322,2.37155615,-2.84509850,1.77125234e+01,6.52296218,-2.93517443,-1,-0.9959742332554674
1.25284521e+02,6.99953898e+01,-2.23917316e-06,5.86619146,4.04465364,2.36646560,-2.84509850,1.01702020e+01,6.52505374,-2.92918452,-1,-0.9957148664908649
1.28991235e+02,6.99953854e+01,-1.23892994e-06,5.86493999,4.04690331,2.36134052,-2.84509850,5.71264258,6.52718335,-2.92306506,-1,-0.9954481674921427
1.32837474e+02,6.99953811e+01,-1.17732166e-06,5.86369942,4.04917934,2.35616818,-2.84509850,5.47850548,6.52936503,-2.91676823,-1,-0.995171429634799
1.36689637e+02,6.99953768e+01,-1.11696221e-06,5.86245905,4.05145643,2.35099382,-2.84509850,5.25017110,6.53154890,-2.91046400,-1,-0.9948942655441746
1.40824766e+02,6.99953722e+01,-1.11625708e-06,5.86122812,4.05378430,2.34572262,-2.84509850,5.29902176,6.53383680,-2.90380643,-1,-0.9945967419791284
1.44959895e+02,6.99953675e+01,-1.11555194e-06,5.85999719,4.05611216,2.34045142,-2.84509851,5.34787242,6.53612470,-2.89714887,-1,-0.9942992184140821
1.49195750e+02,6.99953628e+01,-1.11484386e-06,5.85875979,4.05845894,2.33513917,-2.84509851,5.39782264,6.53845186,-2.89036180,-1,-0.9939944475881612
1.53627193e+02,6.99953579e+01,-1.11413007e-06,5.85750981,4.06084243,2.32974720,-2.84509851,5.44990798,6.54085523,-2.88332326,-1,-0.993675604156757
1.58093597e+02,6.99953529e+01,-1.11343104e-06,5.85625769,4.06323214,2.32434171,-2.84509851,5.50239457,6.54327185,-2.87624118,-1,-0.9933542452726649
1.62796876e+02,6.99953477e+01,-1.11283206e-06,5.85499108,4.06566399,2.31884470,-2.84509851,5.55759991,6.54577821,-2.86886409,-1,-0.9930158431731204
1.67535888e+02,6.99953424e+01,-1.11225171e-06,5.85372370,4.06810171,2.31333559,-2.84509851,5.61315497,6.54829745,-2.86144468,-1,-0.9926748700752951
1.72531380e+02,6.99953369e+01,-1.11180510e-06,5.85245089,4.07058151,2.30773957,-2.84509851,5.67122031,6.55090910,-2.85372147,-1,-0.9923154431773676
1.77526872e+02,6.99953313e+01,-1.11135849e-06,5.85117808,4.07306132,2.30214355,-2.84509851,5.72928565,6.55352075,-2.84599826,-1,-0.9919560162794401
1.82821680e+02,6.99953254e+01,-1.11098278e-06,5.84989485,4.07558608,2.29645241,-2.84509852,5.78935424,6.55623991,-2.83793201,-1,-0.9915750535205042
1.88167035e+02,6.99953195e+01,-1.11061906e-06,5.84860986,4.07811844,2.29074520,-2.84509852,5.84976114,6.55897723,-2.82980782,-1,-0.9911904538922851
1.93624029e+02,6.99953134e+01,-1.11024166e-06,5.84731424,4.08066820,2.28499788,-2.84509852,5.91081905,6.56175676,-2.82155245,-1,-0.990797821810114
1.99325551e+02,6.99953071e+01,-1.10983434e-06,5.84599536,4.08325606,2.27916271,-2.84509852,5.97330291,6.56462878,-2.81300973,-1,-0.9903875958772278
2.05103831e+02,6.99953007e+01,-1.10942594e-06,5.84467093,4.08585454,2.27330355,-2.84509852,6.03631448,6.56752897,-2.80438058,-1,-0.9899718471870574
2.11128694e+02,6.99952940e+01,-1.10901409e-06,5.84332868,4.08848708,2.26736732,-2.84509852,6.10102133,6.57051971,-2.79547375,-1,-0.9895383567884084
2.17279194e+02,6.99952872e+01,-1.10862961e-06,5.84198398,4.09113447,2.26140020,-2.84509852,6.16677979,6.57355354,-2.78643512,-1,-0.9890958267762087
2.23650880e+02,6.99952801e+01,-1.10829335e-06,5.84063500,4.09380799,2.25537868,-2.84509853,6.23438962,6.57666324,-2.77716442,-1,-0.9886373823760278
2.30120098e+02,6.99952730e+01,-1.10797194e-06,5.83928458,4.09649161,2.24933621,-2.84509853,6.30288287,6.57980547,-2.76779493,-1,-0.9881719205240708
2.36907584e+02,6.99952655e+01,-1.10769904e-06,5.83792943,4.09920825,2.24322536,-2.84509853,6.37425893,6.58305384,-2.75810307,-1,-0.9876835592099686
2.43695071e+02,6.99952579e+01,-1.10742613e-06,5.83657428,4.10192489,2.23711451,-2.84509853,6.44563499,6.58630221,-2.74841122,-1,-0.9871951978239163
2.50835944e+02,6.99952500e+01,-1.10715133e-06,5.83519927,4.10468093,2.23091492,-2.84509853,6.52042982,6.58967358,-2.73834956,-1,-0.9866814102268419
2.58045259e+02,6.99952421e+01,-1.10687616e-06,5.83382042,4.10744460,2.22469816,-2.84509853,6.59588678,6.59306878,-2.72821629,-1,-0.9861626982107617
2.65591835e+02,6.99952337e+01,-1.10661980e-06,5.83243554,4.11024058,2.21841375,-2.84509853,6.67432119,6.59657659,-2.71774451,-1,-0.9856197201814396
2.73230776e+02,6.99952253e+01,-1.10637833e-06,5.83105190,4.11304445,2.21211419,-2.84509853,6.75355096,6.60011389,-2.70718370,-1,-0.9850700964672826
2.81231680e+02,6.99952164e+01,-1.10623064e-06,5.82968357,4.11587574,2.20576745,-2.84509854,6.83582468,6.60376194,-2.69628740,-1,-0.9844944294248099
2.89284427e+02,6.99952075e+01,-1.10609985e-06,5.82831823,4.11871044,2.19941538,-2.84509855,6.91850066,6.60742535,-2.68534476,-1,-0.9839150322655301
2.97776980e+02,6.99951981e+01,-1.10611236e-06,5.82697815,4.12157403,2.19301816,-2.84509855,7.00458921,6.61121899,-2.67400903,-1,-0.9833039909546292
3.06269533e+02,6.99951887e+01,-1.10612487e-06,5.82563808,4.12443762,2.18662095,-2.84509856,7.09067775,6.61501262,-2.66267331,-1,-0.9826929496437282
3.15175850e+02,6.99951789e+01,-1.10639263e-06,5.82430805,4.12733404,2.18016310,-2.84509856,7.18097784,6.61893520,-2.65095138,-1,-0.9820521379096149
3.24166003e+02,6.99951689e+01,-1.10671210e-06,5.82298006,4.13023711,2.17369296,-2.84509855,7.27213126,6.62288391,-2.63915120,-1,-0.9814052941543484
3.33594046e+02,6.99951585e+01,-1.10718977e-06,5.82168243,4.13316958,2.16717921,-2.84509856,7.36682815,6.62696246,-2.62696012,-1,-0.9807269441041396
3.43173301e+02,6.99951479e+01,-1.10770857e-06,5.82040398,4.13610976,2.16065963,-2.84509856,7.46258603,6.63108225,-2.61464471,-1,-0.9800377143127383
3.53098673e+02,6.99951368e+01,-1.10831863e-06,5.81917132,4.13906710,2.15412861,-2.84509857,7.56073829,6.63529568,-2.60204700,-1,-0.9793235813166817
3.63233981e+02,6.99951256e+01,-1.10906684e-06,5.81797023,4.14203383,2.14759460,-2.84509858,7.66101127,6.63956413,-2.58928403,-1,-0.9785943433729557
3.73740303e+02,6.99951139e+01,-1.11005921e-06,5.81682496,4.14501717,2.14105529,-2.84509860,7.76503215,6.64392983,-2.57622898,-1,-0.9778384108792018
3.84351982e+02,6.99951021e+01,-1.11124445e-06,5.81569206,4.14800715,2.13450889,-2.84509861,7.87122651,6.64832486,-2.56308617,-1,-0.9770748979229659
3.95444361e+02,6.99950898e+01,-1.11330977e-06,5.81461557,4.15102740,2.12793013,-2.84509861,7.98733753,6.65285378,-2.54954295,-1,-0.9762767984815882
4.06743732e+02,6.99950772e+01,-1.11551095e-06,5.81357252,4.15405905,2.12134530,-2.84509861,8.10597874,6.65743775,-2.53583469,-1,-0.9754638059140769
4.18366488e+02,6.99950642e+01,-1.11792442e-06,5.81258172,4.15710850,2.11475100,-2.84509861,8.22857290,6.66210770,-2.52186862,-1,-0.9746275457149918
4.30425559e+02,6.99950506e+01,-1.12034405e-06,5.81168784,4.16017565,2.10816977,-2.84509863,8.35369093,6.66688293,-2.50758717,-1,-0.973759892542608
4.42618845e+02,6.99950369e+01,-1.12276559e-06,5.81082377,4.16324824,2.10159255,-2.84509865,8.47958534,6.67169055,-2.49320871,-1,-0.9728825825674297
4.55429954e+02,6.99950225e+01,-1.12584234e-06,5.81010647,4.16634585,2.09503869,-2.84509865,8.61347082,6.67664282,-2.47839908,-1,-0.9719608200729885
4.68305617e+02,6.99950079e+01,-1.12898755e-06,5.80940451,4.16944607,2.08848726,-2.84509865,8.74819125,6.68161020,-2.46354441,-1,-0.9710344129021131
4.81723425e+02,6.99949927e+01,-1.13409747e-06,5.80881059,4.17257978,2.08192289,-2.84509868,8.90164964,6.68671400,-2.44828192,-1,-0.9700689982629891
4.95319828e+02,6.99949772e+01,-1.13975211e-06,5.80825364,4.17572432,2.07535534,-2.84509870,9.06046364,6.69186228,-2.43288665,-1,-0.9690907336689786
5.09496188e+02,6.99949609e+01,-1.14588336e-06,5.80783396,4.17890142,2.06879130,-2.84509871,9.22636746,6.69714943,-2.41707986,-1,-0.9680707410238689
5.23993915e+02,6.99949441e+01,-1.15181976e-06,5.80750788,4.18209305,2.06224498,-2.84509874,9.39196348,6.70250654,-2.40106795,-1,-0.9670276259427898
5.38831453e+02,6.99949269e+01,-1.15755012e-06,5.80728077,4.18530006,2.05571741,-2.84509877,9.55723405,6.70793762,-2.38483913,-1,-0.9659600613753314
5.54206788e+02,6.99949090e+01,-1.16408235e-06,5.80721246,4.18853253,2.04921833,-2.84509882,9.73118079,6.71348089,-2.36827683,-1,-0.964853802179311
5.69832596e+02,6.99948906e+01,-1.17098803e-06,5.80721812,4.19177685,2.04273252,-2.84509886,9.90916838,6.71907641,-2.35155921,-1,-0.9637295213883397
5.85949133e+02,6.99948715e+01,-1.18085385e-06,5.80734664,4.19505534,2.03623979,-2.84509887,1.01155436e+01,6.72478541,-2.33450828,-1,-0.9625699325231699
6.02357751e+02,6.99948519e+01,-1.19248154e-06,5.80754829,4.19835417,2.02974295,-2.84509885,1.03388151e+01,6.73056194,-2.31725894,-1,-0.9613893283570502
6.19429649e+02,6.99948313e+01,-1.20462461e-06,5.80793219,4.20169584,2.02325157,-2.84509886,1.05710874e+01,6.73648123,-2.29959155,-1,-0.9601610010291564
6.36825327e+02,6.99948100e+01,-1.21723203e-06,5.80840957,4.20505903,2.01676387,-2.84509887,1.08096517e+01,6.74246898,-2.28172422,-1,-0.9589093776493398
6.54600478e+02,6.99947882e+01,-1.23041460e-06,5.80899715,4.20844754,2.01028066,-2.84509889,1.10558659e+01,6.74853680,-2.26362315,-1,-0.9576304510923314
6.73097092e+02,6.99947650e+01,-1.24262482e-06,5.80981235,4.21187923,2.00382487,-2.84509895,1.12973612e+01,6.75474197,-2.24512241,-1,-0.9562996150921571
6.91886129e+02,6.99947414e+01,-1.25539325e-06,5.81071479,4.21532984,1.99737486,-2.84509901,1.15457377e+01,6.76100130,-2.22646514,-1,-0.9549477391840472
7.11250637e+02,6.99947166e+01,-1.26929825e-06,5.81178874,4.21881777,1.99093598,-2.84509908,1.18080076e+01,6.76736715,-2.20750000,-1,-0.9535544579936593
7.30982428e+02,6.99946911e+01,-1.28670424e-06,5.81295116,4.22233592,1.98448088,-2.84509910,1.21067411e+01,6.77380688,-2.18831954,-1,-0.9521347506996262
7.51201753e+02,6.99946646e+01,-1.30875746e-06,5.81423101,4.22589420,1.97800426,-2.84509906,1.24538768e+01,6.78034468,-2.16885325,-1,-0.9506799652124432
7.72075146e+02,6.99946367e+01,-1.33109365e-06,5.81567195,4.22950470,1.97150372,-2.84509906,1.28113046e+01,6.78700613,-2.14903257,-1,-0.9491781193691885
7.93370157e+02,6.99946077e+01,-1.35396427e-06,5.81721504,4.23314960,1.96498546,-2.84509906,1.31789845e+01,6.79374513,-2.12898963,-1,-0.9476459380054585
8.15140082e+02,6.99945777e+01,-1.37724075e-06,5.81887225,4.23683323,1.95844682,-2.84509907,1.35563133e+01,6.80056931,-2.10870281,-1,-0.9460795864607328
8.37623014e+02,6.99945461e+01,-1.39816364e-06,5.82069809,4.24057232,1.95188157,-2.84509915,1.39187220e+01,6.80750956,-2.08808679,-1,-0.9444619338841547
8.60590635e+02,6.99945132e+01,-1.42014246e-06,5.82261692,4.24435124,1.94528313,-2.84509921,1.42980538e+01,6.81452542,-2.06725826,-1,-0.9428094078128877
8.83997002e+02,6.99944793e+01,-1.44307712e-06,5.82461990,4.24816623,1.93865465,-2.84509925,1.46927048e+01,6.82160972,-2.04623737,-1,-0.9411253138572647
9.08058865e+02,6.99944435e+01,-1.47501384e-06,5.82671369,4.25204432,1.93194535,-2.84509917,1.51915743e+01,6.82880618,-2.02489670,-1,-0.9393940568006129
9.32570530e+02,6.99944064e+01,-1.51019458e-06,5.82886794,4.25596542,1.92518028,-2.84509907,1.57327292e+01,6.83607708,-2.00334435,-1,-0.9376304363776419
9.57674771e+02,6.99943676e+01,-1.54481552e-06,5.83109883,4.25994268,1.91834120,-2.84509903,1.62814245e+01,6.84344189,-1.98152590,-1,-0.9358241799633678
9.83468706e+02,6.99943266e+01,-1.57997156e-06,5.83340445,4.26398520,1.91140897,-2.84509901,1.68525154e+01,6.85090893,-1.95941993,-1,-0.9339682998934178
1.00980545e+03,6.99942839e+01,-1.61595069e-06,5.83575603,4.26807941,1.90439635,-2.84509898,1.74468465e+01,6.85845246,-1.93709910,-1,-0.9320733645802532
1.03674734e+03,6.99942393e+01,-1.65004326e-06,5.83814423,4.27222896,1.89729135,-2.84509900,1.80372462e+01,6.86607314,-1.91456240,-1,-0.9301348888611439
1.06416900e+03,6.99941931e+01,-1.68173017e-06,5.84055192,4.27642131,1.89011049,-2.84509906,1.86150864e+01,6.87375068,-1.89186718,-1,-0.9281618935706253
1.09246120e+03,6.99941441e+01,-1.71491740e-06,5.84295832,4.28069215,1.88277201,-2.84509911,1.92363472e+01,6.88152510,-1.86890417,-1,-0.9261262627095319
1.12115227e+03,6.99940935e+01,-1.75510299e-06,5.84535695,4.28500347,1.87534870,-2.84509906,1.99521168e+01,6.88934992,-1.84579848,-1,-0.9240619330522486
1.15043683e+03,6.99940406e+01,-1.80395691e-06,5.84774303,4.28937461,1.86779944,-2.84509890,2.07892231e+01,6.89724858,-1.82248417,-1,-0.9219549016411338
1.18043285e+03,6.99939850e+01,-1.85044750e-06,5.85010690,4.29381459,1.86010142,-2.84509871,2.16307951e+01,6.90522742,-1.79894680,-1,-0.9197966805052032
1.21110402e+03,6.99939267e+01,-1.89633038e-06,5.85243565,4.29831737,1.85226023,-2.84509866,2.24964373e+01,6.91327549,-1.77521546,-1,-0.9175898821580318
1.24240640e+03,6.99938658e+01,-1.94224011e-06,5.85471927,4.30287719,1.84428241,-2.84509864,2.33930383e+01,6.92138343,-1.75131957,-1,-0.9153376680936016
1.27441922e+03,6.99938020e+01,-1.98322215e-06,5.85693176,4.30749492,1.83615319,-2.84509863,2.42647590e+01,6.92954891,-1.72726752,-1,-0.9130343376936105
1.30707536e+03,6.99937357e+01,-2.02217331e-06,5.85906494,4.31216147,1.82788668,-2.84509864,2.51444230e+01,6.93775974,-1.70309160,-1,-0.9106847202588338
1.34030544e+03,6.99936671e+01,-2.06155617e-06,5.86112160,4.31687041,1.81949714,-2.84509864,2.60589271e+01,6.94600852,-1.67881120,-1,-0.9082938076976119
1.37438546e+03,6.99935946e+01,-2.11667033e-06,5.86308089,4.32164985,1.81091790,-2.84509862,2.72251365e+01,6.95432636,-1.65433755,-1,-0.9058417417409639
1.40911423e+03,6.99935191e+01,-2.17013130e-06,5.86496379,4.32647916,1.80220072,-2.84509861,2.84146170e+01,6.96269098,-1.62973350,-1,-0.903342998059673
1.44455508e+03,6.99934403e+01,-2.22106188e-06,5.86675732,4.33135947,1.79333687,-2.84509861,2.96224100e+01,6.97110222,-1.60499915,-1,-0.9007930200444115
1.48073437e+03,6.99933581e+01,-2.27069118e-06,5.86845159,4.33628821,1.78432653,-2.84509860,3.08684319e+01,6.97955709,-1.58014293,-1,-0.8981899110865911
1.51772706e+03,6.99932723e+01,-2.31518748e-06,5.87002486,4.34126105,1.77516748,-2.84509861,3.21063885e+01,6.98804997,-1.55518046,-1,-0.8955282777954768
1.55549396e+03,6.99931831e+01,-2.35581934e-06,5.87147779,4.34626919,1.76587766,-2.84509863,3.33514527e+01,6.99657152,-1.53013390,-1,-0.8928109399013637
1.59391085e+03,6.99930911e+01,-2.39638688e-06,5.87283025,4.35130536,1.75648156,-2.84509865,3.46469982e+01,7.00511538,-1.50501868,-1,-0.8900468350642979
1.63332644e+03,6.99929941e+01,-2.45320700e-06,5.87406230,4.35639417,1.74691996,-2.84509864,3.62716108e+01,7.01371117,-1.47974097,-1,-0.8872108735126263
1.67351942e+03,6.99928933e+01,-2.50551271e-06,5.87520200,4.36151747,1.73724322,-2.84509864,3.79078459e+01,7.02234019,-1.45435874,-1,-0.8843189785561609
1.71455560e+03,6.99927885e+01,-2.55498949e-06,5.87623981,4.36667327,1.72745051,-2.84509864,3.95852336e+01,7.03100173,-1.42887510,-1,-0.8813664151489539
1.75646636e+03,6.99927104e+01,-1.82977801e-06,5.87717768,4.37185872,1.71754855,-2.84509863,2.90239449e+01,7.03969360,-1.40329520,-1,-0.8783509254921623
1.79938238e+03,6.99926994e+01,-4.11272230e-07,5.87799830,4.37706672,1.70754285,-2.84509874,6.58496786,7.04840904,-1.37763483,-1,-0.8752631071271252
1.84332840e+03,6.99926941e+01,-1.18095383e-07,5.87869963,4.38229194,1.69744309,-2.84509882,1.97425615,7.05714580,-1.35190415,-1,-0.8721011800046594
1.88807871e+03,6.99926884e+01,-1.27407451e-07,5.87932788,4.38753604,1.68726901,-2.84509886,2.18659731,7.06590880,-1.32608823,-1,-0.8688813840156766
1.93382980e+03,6.99926820e+01,-1.38429783e-07,5.87987648,4.39280400,1.67700739,-2.84509888,2.44004787,7.07470640,-1.30016104,-1,-0.8655895816555681
1.98061240e+03,6.99926751e+01,-1.49269036e-07,5.88034462,4.39809091,1.66666765,-2.84509888,2.70428652,7.08353376,-1.27413810,-1,-0.8622235618931535
2.02851716e+03,6.99926674e+01,-1.59346168e-07,5.88072657,4.40339001,1.65626043,-2.84509889,2.96941446,7.09238489,-1.24803423,-1,-0.8587768024382764
2.07752776e+03,6.99926591e+01,-1.68759306e-07,5.88103166,4.40869463,1.64580372,-2.84509892,3.23662254,7.10125269,-1.22186986,-1,-0.8552504775190158
2.12750707e+03,6.99926501e+01,-1.78882438e-07,5.88127915,4.41400434,1.63530806,-2.84509895,3.53050290,7.11013684,-1.19564836,-1,-0.8516544536731447
2.17870606e+03,6.99926402e+01,-1.93150210e-07,5.88147358,4.41933041,1.62475312,-2.84509894,3.92635642,7.11905875,-1.16930925,-1,-0.847970673546438
2.23112294e+03,6.99926294e+01,-2.06727760e-07,5.88161465,4.42466703,1.61415042,-2.84509893,4.33180283,7.12801078,-1.14287266,-1,-0.844199265929843
2.28478874e+03,6.99926176e+01,-2.19900324e-07,5.88170396,4.43000967,1.60350979,-2.84509893,4.75267632,7.13698788,-1.11634853,-1,-0.8403379982071043
2.33965025e+03,6.99926049e+01,-2.31232039e-07,5.88174842,4.43535053,1.59285030,-2.84509898,5.15565925,7.14597885,-1.08977409,-1,-0.8363906988510208
2.39601444e+03,6.99925911e+01,-2.42931363e-07,5.88175207,4.44068817,1.58217685,-2.84509905,5.59429811,7.15498685,-1.06313546,-1,-0.8323352812933713
