star_age,star_mass,star_mdot,log_L,log_Teff,log_R,log_surf_z,v_wind_Km_per_s,log_center_T,log_center_Rho,phase,x
1.86643689e+02,9.99990346e+01,-5.13750233e-06,6.13099852,4.31897931,1.95021780,-2.84509849,4.45714203e+01,6.94173869,-1.79179176,-1,-1.0
1.90930939e+02,9.99990121e+01,-5.15339586e-06,6.13120199,4.31978472,1.94870870,-2.84509849,4.48567789e+01,6.94310334,-1.78782754,-1,-0.9995626650709647
1.95218189e+02,9.99989896e+01,-5.16928939e-06,6.13140546,4.32059014,1.94719960,-2.84509849,4.51421374e+01,6.94446799,-1.78386333,-1,-0.9991253301419295
1.99505439e+02,9.99989671e+01,-5.18518292e-06,6.13160892,4.32139556,1.94569050,-2.84509849,4.54274960e+01,6.94583264,-1.77989912,-1,-0.9986879952128942
2.03792689e+02,9.99989447e+01,-5.20107645e-06,6.13181239,4.32220098,1.94418140,-2.84509849,4.57128545e+01,6.94719729,-1.77593491,-1,-0.9982506602838589
2.08079938e+02,9.99989222e+01,-5.21696998e-06,6.13201586,4.32300639,1.94267229,-2.84509849,4.59982130e+01,6.94856194,-1.77197070,-1,-0.9978133254568319
2.12367188e+02,9.99988997e+01,-5.23286351e-06,6.13221932,4.32381181,1.94116319,-2.84509849,4.62835716e+01,6.94992659,-1.76800648,-1,-0.9973759905277966
2.16867692e+02,9.99988759e+01,-5.24983605e-06,6.13244453,4.32465312,1.93959318,-2.84509849,4.65882914e+01,6.95135055,-1.76387030,-1,-0.99691690192847
2.21742678e+02,9.99988499e+01,-5.26870340e-06,6.13270790,4.32555744,1.93791622,-2.84509849,4.69270107e+01,6.95287866,-1.75943211,-1,-0.996419613070494
2.26617665e+02,9.99988238e+01,-5.28757075e-06,6.13297127,4.32646176,1.93623926,-2.84509849,4.72657300e+01,6.95440677,-1.75499393,-1,-0.9959223241105096
2.31492652e+02,9.99987977e+01,-5.30643810e-06,6.13323464,4.32736609,1.93456230,-2.84509849,4.76044492e+01,6.95593489,-1.75055575,-1,-0.9954250351505253
2.36367639e+02,9.99987716e+01,-5.32530545e-06,6.13349801,4.32827041,1.93288533,-2.84509849,4.79431685e+01,6.95746300,-1.74611756,-1,-0.9949277461905409
2.41242626e+02,9.99987455e+01,-5.34417280e-06,6.13376138,4.32917474,1.93120837,-2.84509849,4.82818878e+01,6.95899111,-1.74167938,-1,-0.9944304572305566
2.46536773e+02,9.99987168e+01,-5.36519304e-06,6.13406086,4.33014999,1.92940760,-2.84509849,4.86623047e+01,6.96063120,-1.73691573,-1,-0.993890410486712
2.51980867e+02,9.99986871e+01,-5.38698343e-06,6.13437326,4.33115062,1.92756255,-2.84509849,4.90576382e+01,6.96231135,-1.73203565,-1,-0.9933350679097335
2.57424960e+02,9.99986574e+01,-5.40877383e-06,6.13468566,4.33215124,1.92571750,-2.84509849,4.94529716e+01,6.96399151,-1.72715558,-1,-0.9927797254347632
2.62869054e+02,9.99986277e+01,-5.43056422e-06,6.13499806,4.33315187,1.92387244,-2.84509849,4.98483051e+01,6.96567166,-1.72227550,-1,-0.9922243828577846
2.68313147e+02,9.99985979e+01,-5.45235461e-06,6.13531046,4.33415250,1.92202739,-2.84509849,5.02436386e+01,6.96735181,-1.71739542,-1,-0.9916690403828143
2.74224908e+02,9.99985652e+01,-5.47335151e-06,6.13565397,4.33522382,1.92005649,-2.84509849,5.06577763e+01,6.96915069,-1.71217112,-1,-0.9910659919071227
2.80286067e+02,9.99985314e+01,-5.49409492e-06,6.13600741,4.33631773,1.91804539,-2.84509849,5.10779212e+01,6.97098751,-1.70683684,-1,-0.990447703600834
2.86347225e+02,9.99984977e+01,-5.51483833e-06,6.13636086,4.33741165,1.91603429,-2.84509849,5.14980660e+01,6.97282432,-1.70150257,-1,-0.9898294153965536
2.92408383e+02,9.99984639e+01,-5.53558174e-06,6.13671430,4.33850556,1.91402319,-2.84509849,5.19182108e+01,6.97466113,-1.69616830,-1,-0.989211127192273
2.98469541e+02,9.99984302e+01,-5.55632515e-06,6.13706775,4.33959947,1.91201209,-2.84509849,5.23383557e+01,6.97649794,-1.69083402,-1,-0.9885928389879926
3.04818143e+02,9.99983944e+01,-5.57821331e-06,6.13743300,4.34073797,1.90991772,-2.84509849,5.27882286e+01,6.97840452,-1.68529725,-1,-0.9879452291203283
3.11613023e+02,9.99983557e+01,-5.60187876e-06,6.13781656,4.34194569,1.90769405,-2.84509849,5.32842568e+01,6.98041942,-1.67944609,-1,-0.9872520952087059
3.18407903e+02,9.99983169e+01,-5.62554422e-06,6.13820013,4.34315342,1.90547039,-2.84509849,5.37802849e+01,6.98243432,-1.67359492,-1,-0.9865589612970835
3.25202783e+02,9.99982781e+01,-5.64920968e-06,6.13858370,4.34436114,1.90324672,-2.84509849,5.42763131e+01,6.98444922,-1.66774375,-1,-0.985865827385461
3.31997663e+02,9.99982394e+01,-5.67287514e-06,6.13896727,4.34556886,1.90102306,-2.84509849,5.47723412e+01,6.98646412,-1.66189259,-1,-0.9851726934738386
3.38792543e+02,9.99982006e+01,-5.69654059e-06,6.13935084,4.34677659,1.89879939,-2.84509849,5.52683694e+01,6.98847903,-1.65604142,-1,-0.9844795595622162
3.46063244e+02,9.99981583e+01,-5.72907635e-06,6.13974782,4.34806106,1.89642893,-2.84509849,5.58895794e+01,6.99060886,-1.64985694,-1,-0.9837378879764977
3.53592713e+02,9.99981141e+01,-5.76643611e-06,6.14015210,4.34938728,1.89397864,-2.84509849,5.65788679e+01,6.99280119,-1.64349118,-1,-0.9829698199163687
3.61122183e+02,9.99980700e+01,-5.80379587e-06,6.14055637,4.35071350,1.89152835,-2.84509849,5.72681565e+01,6.99499353,-1.63712542,-1,-0.9822017517542313
3.68651653e+02,9.99980258e+01,-5.84115563e-06,6.14096065,4.35203971,1.88907805,-2.84509849,5.79574451e+01,6.99718586,-1.63075966,-1,-0.981433683592094
3.76350616e+02,9.99979803e+01,-5.87844504e-06,6.14136765,4.35338978,1.88658142,-2.84509849,5.86614145e+01,6.99941709,-1.62428105,-1,-0.9806483257432981
3.84523105e+02,9.99979312e+01,-5.91553792e-06,6.14178229,4.35480649,1.88395531,-2.84509849,5.94063992e+01,7.00175698,-1.61748715,-1,-0.9798146643293716
3.92695595e+02,9.99978821e+01,-5.95263081e-06,6.14219693,4.35622321,1.88132921,-2.84509849,6.01513838e+01,7.00409688,-1.61069325,-1,-0.9789810028134368
4.00868085e+02,9.99978330e+01,-5.98972369e-06,6.14261157,4.35763992,1.87870310,-2.84509849,6.08963684e+01,7.00643677,-1.60389934,-1,-0.9781473412975019
4.09356724e+02,9.99977814e+01,-6.02714215e-06,6.14302711,4.35910345,1.87598381,-2.84509849,6.16765493e+01,7.00884613,-1.59690377,-1,-0.9772814299709708
4.18129941e+02,9.99977276e+01,-6.06485368e-06,6.14344347,4.36060913,1.87318063,-2.84509849,6.24884115e+01,7.01131802,-1.58972666,-1,-0.9763864893367399
4.26903158e+02,9.99976738e+01,-6.10256521e-06,6.14385982,4.36211481,1.87037744,-2.84509849,6.33002736e+01,7.01378991,-1.58254954,-1,-0.9754915487025091
4.35768172e+02,9.99976192e+01,-6.14046350e-06,6.14427522,4.36363218,1.86755041,-2.84509849,6.41234593e+01,7.01628103,-1.57531658,-1,-0.974587244015685
4.45127616e+02,9.99975607e+01,-6.17936767e-06,6.14468546,4.36521250,1.86459488,-2.84509849,6.50076352e+01,7.01887574,-1.56778276,-1,-0.9736325033829835
4.54487059e+02,9.99975021e+01,-6.21827185e-06,6.14509571,4.36679282,1.86163936,-2.84509849,6.58918110e+01,7.02147044,-1.56024894,-1,-0.9726777628522901
4.63864781e+02,9.99974445e+01,-6.22737282e-06,6.14550554,4.36837551,1.85867890,-2.84509849,6.64511797e+01,7.02406870,-1.55270480,-1,-0.9717211577125426
4.73858380e+02,9.99974169e+01,-5.23228076e-06,6.14590139,4.37003788,1.85555209,-2.84509849,5.60664547e+01,7.02678685,-1.54481324,-1,-0.9707017280293023
4.83851979e+02,9.99973893e+01,-4.23718870e-06,6.14629723,4.37170024,1.85242528,-2.84509849,4.56817297e+01,7.02950501,-1.53692168,-1,-0.969682298346062
4.93845578e+02,9.99973618e+01,-3.24209665e-06,6.14669307,4.37336260,1.84929848,-2.84509849,3.52970048e+01,7.03222317,-1.52903012,-1,-0.9686628686628217
5.04227211e+02,9.99973468e+01,-2.43370625e-06,6.14707311,4.37507185,1.84607000,-2.84509849,2.67022117e+01,7.03501286,-1.52093075,-1,-0.9676038563049407
5.14976218e+02,9.99973438e+01,-1.80207665e-06,6.14743818,4.37682549,1.84274527,-2.84509849,1.98020464e+01,7.03787028,-1.51263465,-1,-0.9665073687631495
5.25725225e+02,9.99973408e+01,-1.17044705e-06,6.14780325,4.37857912,1.83942054,-2.84509849,1.29018811e+01,7.04072770,-1.50433854,-1,-0.9654108812213582
5.36474231e+02,9.99973378e+01,-5.38817452e-07,6.14816833,4.38033275,1.83609581,-2.84509849,6.00171577,7.04358512,-1.49604244,-1,-0.9643143937815751
5.47668264e+02,9.99973344e+01,-2.86677824e-07,6.14851773,4.38214461,1.83264680,-2.84509849,3.26882925,7.04652615,-1.48750287,-1,-0.9631725099101719
5.59169083e+02,9.99973308e+01,-2.96145347e-07,6.14885633,4.38399660,1.82911212,-2.84509849,3.40871938,7.04952484,-1.47879547,-1,-0.9619993313315464
5.70669902e+02,9.99973273e+01,-3.05612869e-07,6.14919493,4.38584858,1.82557745,-2.84509849,3.54860952,7.05252352,-1.47008807,-1,-0.9608261527529207
5.82489901e+02,9.99973234e+01,-3.15133794e-07,6.14952093,4.38773666,1.82196430,-2.84509849,3.69349373,7.05557832,-1.46121789,-1,-0.9596204151766511
5.94653426e+02,9.99973193e+01,-3.24712194e-07,6.14983338,4.38966358,1.81826669,-2.84509849,3.84375297,7.05869351,-1.45217253,-1,-0.9583796351095466
6.06816950e+02,9.99973152e+01,-3.34290594e-07,6.15014583,4.39159050,1.81456908,-2.84509849,3.99401220,7.06180870,-1.44312717,-1,-0.9571388551444504
6.19450220e+02,9.99973108e+01,-3.44149355e-07,6.15043626,4.39356578,1.81076373,-2.84509849,4.15459822,7.06500211,-1.43385360,-1,-0.9558501572054607
6.32239606e+02,9.99973061e+01,-3.54101290e-07,6.15071937,4.39555713,1.80692257,-2.84509850,4.31861626,7.06822151,-1.42450419,-1,-0.9545455341443575
6.45168194e+02,9.99973014e+01,-3.64166584e-07,6.15099515,4.39756322,1.80304828,-2.84509850,4.48633705,7.07146289,-1.41509075,-1,-0.9532267113289149
6.58565229e+02,9.99972962e+01,-3.74613344e-07,6.15124627,4.39961892,1.79906245,-2.84509850,4.66651831,7.07477820,-1.40546183,-1,-0.9518601030483136
6.71962265e+02,9.99972910e+01,-3.85060104e-07,6.15149739,4.40167461,1.79507662,-2.84509850,4.84669956,7.07809352,-1.39583291,-1,-0.950493494665704
6.85918255e+02,9.99972853e+01,-3.94546509e-07,6.15171340,4.40377905,1.79097575,-2.84509850,5.02420848,7.08148854,-1.38597105,-1,-0.9490698683560026
6.99982774e+02,9.99972795e+01,-4.03846450e-07,6.15192260,4.40589296,1.78685253,-2.84509850,5.20119854,7.08489905,-1.37606395,-1,-0.9476351711914378
7.14129454e+02,9.99972736e+01,-4.13218393e-07,6.15212671,4.40801404,1.78271243,-2.84509850,5.38060824,7.08832056,-1.36612464,-1,-0.9461920929259099
7.28987041e+02,9.99972671e+01,-4.23213341e-07,6.15228688,4.41019715,1.77842629,-2.84509850,5.58095388,7.09183730,-1.35590660,-1,-0.9446764962715789
7.43844627e+02,9.99972605e+01,-4.33208289e-07,6.15244704,4.41238026,1.77414015,-2.84509850,5.78129952,7.09535405,-1.34568856,-1,-0.9431608997192562
7.58702214e+02,9.99972539e+01,-4.43203237e-07,6.15260721,4.41456337,1.76985401,-2.84509850,5.98164515,7.09887079,-1.33547052,-1,-0.9416453030649252
7.74351525e+02,9.99972464e+01,-4.58268293e-07,6.15273047,4.41681761,1.76540716,-2.84509850,6.26840799,7.10250004,-1.32492460,-1,-0.9400489440199347
7.90002311e+02,9.99972388e+01,-4.73342787e-07,6.15285366,4.41907199,1.76096001,-2.84509850,6.55533170,7.10612950,-1.31437807,-1,-0.938452434512755
8.05990991e+02,9.99972309e+01,-4.88234795e-07,6.15296021,4.42135409,1.75644907,-2.84509851,6.84895132,7.10980333,-1.30370177,-1,-0.9368214570252822
8.22344864e+02,9.99972225e+01,-5.02929574e-07,6.15304876,4.42366617,1.75186920,-2.84509851,7.14980778,7.11352510,-1.29288523,-1,-0.9351532268339224
8.38853249e+02,9.99972138e+01,-5.17657013e-07,6.15312938,4.42598939,1.74726307,-2.84509851,7.45553781,7.11726588,-1.28201287,-1,-0.9334692351417043
8.55877884e+02,9.99972046e+01,-5.32493575e-07,6.15318348,4.42834984,1.74256922,-2.84509851,7.77755111,7.12107020,-1.27095400,-1,-0.9317325816832924
8.72991271e+02,9.99971952e+01,-5.47068763e-07,6.15323266,4.43071546,1.73786255,-2.84509851,8.09820646,7.12488403,-1.25986709,-1,-0.9299868747874506
8.90748366e+02,9.99971849e+01,-5.59748273e-07,6.15324616,4.43311867,1.73306288,-2.84509851,8.40901301,7.12876689,-1.24857680,-1,-0.9281755043561256
9.08505461e+02,9.99971747e+01,-5.72427783e-07,6.15325966,4.43552188,1.72826322,-2.84509851,8.71981957,7.13264975,-1.23728650,-1,-0.9263641339248008
9.26869336e+02,9.99971636e+01,-5.85552119e-07,6.15324392,4.43795937,1.72338037,-2.84509852,9.05525043,7.13659433,-1.22581490,-1,-0.9244908669191589
9.45500056e+02,9.99971522e+01,-5.98872077e-07,6.15321533,4.44041193,1.71846095,-2.84509852,9.40151038,7.14056605,-1.21426356,-1,-0.9225903795183599
9.64130776e+02,9.99971408e+01,-6.12192035e-07,6.15318673,4.44286449,1.71354153,-2.84509852,9.74777033,7.14453777,-1.20271222,-1,-0.9206898921175607
9.83554796e+02,9.99971281e+01,-6.31321748e-07,6.15313027,4.44537140,1.70849948,-2.84509852,1.02164272e+01,7.14859716,-1.19090247,-1,-0.9187084815610782
1.00304859e+03,9.99971153e+01,-6.50962432e-07,6.15307135,4.44788309,1.70344664,-2.84509852,1.06958489e+01,7.15266425,-1.17907000,-1,-0.9167199534799964
1.02305378e+03,9.99971016e+01,-6.69974192e-07,6.15299412,4.45042249,1.69832923,-2.84509853,1.11871529e+01,7.15678351,-1.16708345,-1,-0.9146792587808332
1.04332079e+03,9.99970875e+01,-6.88663965e-07,6.15290751,4.45297607,1.69317876,-2.84509853,1.16845403e+01,7.16092947,-1.15501802,-1,-0.9126118562780383
1.06405403e+03,9.99970726e+01,-7.07206683e-07,6.15280445,4.45555315,1.68797307,-2.84509853,1.22002339e+01,7.16511956,-1.14282252,-1,-0.9104968944624057
1.08505745e+03,9.99970573e+01,-7.25664180e-07,6.15269186,4.45814385,1.68273538,-2.84509854,1.27265362e+01,7.16933523,-1.13055165,-1,-0.9083543720540557
1.10664574e+03,9.99970409e+01,-7.42002953e-07,6.15255989,4.46075563,1.67744583,-2.84509854,1.32399764e+01,7.17359885,-1.11813792,-1,-0.9061521880724491
1.12846051e+03,9.99970242e+01,-7.57521233e-07,6.15242042,4.46337559,1.67213619,-2.84509854,1.37484356e+01,7.17788106,-1.10566886,-1,-0.9039269012592539
1.15077341e+03,9.99970067e+01,-7.73286793e-07,6.15226838,4.46601152,1.66678831,-2.84509855,1.42816553e+01,7.18220151,-1.09308597,-1,-0.9016508010696054
1.17356209e+03,9.99969883e+01,-7.89288533e-07,6.15210434,4.46866271,1.66140390,-2.84509855,1.48385239e+01,7.18655848,-1.08039436,-1,-0.8993261673881994
1.19635077e+03,9.99969700e+01,-8.05290274e-07,6.15194030,4.47131391,1.65601949,-2.84509855,1.53953925e+01,7.19091546,-1.06770274,-1,-0.8970015337067935
1.22005074e+03,9.99969498e+01,-8.28063634e-07,6.15175997,4.47402017,1.65051680,-2.84509856,1.61294062e+01,7.19535043,-1.05477934,-1,-0.8945839409146568
1.24377547e+03,9.99969295e+01,-8.51021014e-07,6.15157921,4.47672793,1.64501089,-2.84509856,1.68682339e+01,7.19978753,-1.04184965,-1,-0.892163822397908
1.26827362e+03,9.99969077e+01,-8.72753617e-07,6.15138455,4.47945906,1.63945132,-2.84509857,1.76242870e+01,7.20428800,-1.02873197,-1,-0.8896648086497605
1.29287276e+03,9.99968857e+01,-8.94329512e-07,6.15118809,4.48219326,1.63388468,-2.84509857,1.83826552e+01,7.20879670,-1.01558986,-1,-0.8871554930870503
1.31828678e+03,9.99968621e+01,-9.15255898e-07,6.15097791,4.48495751,1.62825108,-2.84509858,1.91723117e+01,7.21336433,-1.00227226,-1,-0.8845630530303238
1.34390433e+03,9.99968380e+01,-9.35400252e-07,6.15076514,4.48772497,1.62260978,-2.84509859,1.99549941e+01,7.21794495,-9.88915899e-01,-1,-0.8819498512316631
1.37024107e+03,9.99968125e+01,-9.52781137e-07,6.15054324,4.49050376,1.61694125,-2.84509859,2.07130326e+01,7.22257143,-9.75422539e-01,-1,-0.8792632861097505
1.39674769e+03,9.99967867e+01,-9.70195523e-07,6.15032017,4.49328542,1.61126640,-2.84509860,2.14794923e+01,7.22720811,-9.61898599e-01,-1,-0.876559391823981
1.42418543e+03,9.99967590e+01,-9.87793537e-07,6.15009075,4.49608283,1.60555686,-2.84509861,2.22921114e+01,7.23190064,-9.48207037e-01,-1,-0.8737605156036093
1.45162317e+03,9.99967313e+01,-1.00539155e-06,6.14986132,4.49888024,1.59984733,-2.84509861,2.31047304e+01,7.23659317,-9.34515475e-01,-1,-0.8709616393832377
1.47989396e+03,9.99967017e+01,-1.02847350e-06,6.14962739,4.50170457,1.59408172,-2.84509862,2.40899747e+01,7.24134421,-9.20650415e-01,-1,-0.868077785178696
1.50840765e+03,9.99966715e+01,-1.05315443e-06,6.14939215,4.50453674,1.58829975,-2.84509863,2.51255520e+01,7.24611233,-9.06734767e-01,-1,-0.865169153166874
1.53770528e+03,9.99966396e+01,-1.07618407e-06,6.14915205,4.50738925,1.58247468,-2.84509864,2.61681259e+01,7.25093013,-8.92670077e-01,-1,-0.862180552796718
1.56720580e+03,9.99966071e+01,-1.09880244e-06,6.14891073,4.51024697,1.57663857,-2.84509865,2.72128373e+01,7.25576071,-8.78567025e-01,-1,-0.8591712559699167
1.59762856e+03,9.99965726e+01,-1.12048670e-06,6.14866527,4.51312556,1.57075867,-2.84509865,2.82862796e+01,7.26064493,-8.64301834e-01,-1,-0.8560678830418958
1.62837400e+03,9.99965373e+01,-1.14095584e-06,6.14841953,4.51600873,1.56486946,-2.84509866,2.93444308e+01,7.26554478,-8.49989711e-01,-1,-0.8529315940873077
1.65983572e+03,9.99965005e+01,-1.15872770e-06,6.14817317,4.51890206,1.55895961,-2.84509867,3.03686387e+01,7.27047935,-8.35573408e-01,-1,-0.849722238653515
1.69170823e+03,9.99964628e+01,-1.17649078e-06,6.14792756,4.52180189,1.55303715,-2.84509867,3.14113663e+01,7.27543244,-8.21101101e-01,-1,-0.8464709792450302
1.72440725e+03,9.99964232e+01,-1.19423619e-06,6.14768348,4.52471479,1.54708932,-2.84509868,3.24913542e+01,7.28042279,-8.06516117e-01,-1,-0.8431354089864209
1.75716386e+03,9.99963834e+01,-1.21230108e-06,6.14743938,4.52762926,1.54113832,-2.84509869,3.35833113e+01,7.28541635,-7.91921501e-01,-1,-0.8397939640718985
1.79107323e+03,9.99963408e+01,-1.23676171e-06,6.14719499,4.53057532,1.53512401,-2.84509869,3.49148900e+01,7.29047415,-7.77134066e-01,-1,-0.8363349281111823
1.82514959e+03,9.99962977e+01,-1.26085031e-06,6.14695044,4.53352530,1.52910176,-2.84509870,3.62451322e+01,7.29554012,-7.62321982e-01,-1,-0.8328588577904916
1.86014953e+03,9.99962524e+01,-1.28288128e-06,6.14670499,4.53649702,1.52303560,-2.84509870,3.75679829e+01,7.30065129,-7.47373568e-01,-1,-0.829288574677508
1.89559477e+03,9.99962059e+01,-1.30436750e-06,6.14645974,4.53947897,1.51694908,-2.84509871,3.88972871e+01,7.30578243,-7.32364595e-01,-1,-0.8256728672846483
1.93163830e+03,9.99961580e+01,-1.32512178e-06,6.14621475,4.54247466,1.51083520,-2.84509871,4.02352628e+01,7.31094040,-7.17274252e-01,-1,-0.8219961293676313
1.96853915e+03,9.99961080e+01,-1.34270415e-06,6.14597293,4.54549918,1.50466525,-2.84509891,4.15167311e+01,7.31612350,-7.02107506e-01,-1,-0.8182319377258817
2.00568014e+03,9.99960574e+01,-1.35939800e-06,6.14573200,4.54853179,1.49847958,-2.84509916,4.27823706e+01,7.32131365,-6.86919357e-01,-1,-0.8144432498196598
2.04400507e+03,9.99960040e+01,-1.37592723e-06,6.14549558,4.55158612,1.49225271,-2.84509923,4.40853094e+01,7.32654196,-6.71613699e-01,-1,-0.8105337902495783
2.08251492e+03,9.99959502e+01,-1.39243075e-06,6.14525988,4.55464385,1.48601940,-2.84509928,4.53940740e+01,7.33177624,-6.56289688e-01,-1,-0.8066054673113523
2.12190101e+03,9.99958941e+01,-1.41277065e-06,6.14502440,4.55772126,1.47974683,-2.84509929,4.68654782e+01,7.33704962,-6.40848820e-01,-1,-0.8025877606520423
2.16176490e+03,9.99958367e+01,-1.43520250e-06,6.14478905,4.56080942,1.47345284,-2.84509928,4.84255690e+01,7.34234432,-6.25344230e-01,-1,-0.7985213144442821
2.20262978e+03,9.99957768e+01,-1.45528284e-06,6.14455378,4.56391499,1.46712407,-2.84509929,4.99504247e+01,7.34767819,-6.09721619e-01,-1,-0.794352758984527
2.24390364e+03,9.99957158e+01,-1.47457500e-06,6.14431876,4.56702720,1.46078214,-2.84509930,5.14657315e+01,7.35302752,-5.94052092e-01,-1,-0.7901424841850373
2.28616065e+03,9.99956525e+01,-1.49245280e-06,6.14408493,4.57015404,1.45441153,-2.84509928,5.29715720e+01,7.35841245,-5.78273418e-01,-1,-0.7858319199609793
2.32917726e+03,9.99955873e+01,-1.50804164e-06,6.14385347,4.57328780,1.44802829,-2.84509935,5.44213316e+01,7.36381800,-5.62433826e-01,-1,-0.7814438702597284
2.37273698e+03,9.99955208e+01,-1.52199384e-06,6.14362370,4.57642649,1.44163601,-2.84509946,5.58309924e+01,7.36923829,-5.46550676e-01,-1,-0.7770004188503176
2.41746032e+03,9.99954517e+01,-1.53541045e-06,6.14339759,4.57957522,1.43522550,-2.84509959,5.72553165e+01,7.37468929,-5.30574606e-01,-1,-0.7724382685849679
2.46258098e+03,9.99953815e+01,-1.54864418e-06,6.14317272,4.58272738,1.42880876,-2.84509972,5.86846475e+01,7.38015078,-5.14566808e-01,-1,-0.7678355883962397
2.50864592e+03,9.99953091e+01,-1.56427473e-06,6.14294763,4.58589356,1.42236385,-2.84509977,6.02350517e+01,7.38564618,-4.98458553e-01,-1,-0.7631365838441575
