star_age,star_mass,star_mdot,log_L,log_Teff,log_R,log_surf_z,v_wind_Km_per_s,log_center_T,log_center_Rho,phase,x
2.23972437e+02,1.09999089e+02,-3.90909459e-07,6.21869586,4.38802656,1.85597197,-2.84509848,4.16669086,7.05942921,-1.46505080,-1,-1.0
2.28679837e+02,1.09999087e+02,-3.96182873e-07,6.21891824,4.38880424,1.85452779,-2.84509848,4.24032640,7.06070086,-1.46137404,-1,-0.9994643495113053
2.33387238e+02,1.09999085e+02,-4.01456286e-07,6.21914061,4.38958193,1.85308361,-2.84509848,4.31396195,7.06197251,-1.45769728,-1,-0.9989286989088215
2.38094638e+02,1.09999083e+02,-4.06729700e-07,6.21936299,4.39035961,1.85163943,-2.84509848,4.38759749,7.06324416,-1.45402052,-1,-0.9983930484201269
2.42802039e+02,1.09999081e+02,-4.12003113e-07,6.21958536,4.39113729,1.85019525,-2.84509848,4.46123303,7.06451581,-1.45034376,-1,-0.997857397817643
2.47509439e+02,1.09999079e+02,-4.17276527e-07,6.21980774,4.39191498,1.84875106,-2.84509848,4.53486857,7.06578746,-1.44666700,-1,-0.9973217473289484
2.52216840e+02,1.09999077e+02,-4.22549940e-07,6.22003012,4.39269266,1.84730688,-2.84509848,4.60850412,7.06705911,-1.44299024,-1,-0.9967860967264647
2.56924240e+02,1.09999074e+02,-4.27823353e-07,6.22025249,4.39347035,1.84586270,-2.84509848,4.68213966,7.06833075,-1.43931348,-1,-0.9962504462377699
2.62195693e+02,1.09999072e+02,-4.33639504e-07,6.22046811,4.39433207,1.84424707,-2.84509849,4.76747674,7.06973325,-1.43525853,-1,-0.9956506127042735
2.67530389e+02,1.09999070e+02,-4.39516508e-07,6.22068297,4.39520322,1.84261221,-2.84509849,4.85412581,7.07115042,-1.43116118,-1,-0.9950435828110336
2.72865084e+02,1.09999067e+02,-4.45393511e-07,6.22089784,4.39607436,1.84097735,-2.84509849,4.94077488,7.07256759,-1.42706383,-1,-0.9944365530315826
2.78199780e+02,1.09999065e+02,-4.51270515e-07,6.22111270,4.39694551,1.83934249,-2.84509849,5.02742395,7.07398476,-1.42296648,-1,-0.9938295231383427
2.83534476e+02,1.09999062e+02,-4.57147518e-07,6.22132756,4.39781665,1.83770763,-2.84509849,5.11407302,7.07540193,-1.41886913,-1,-0.9932224932451027
2.88869171e+02,1.09999060e+02,-4.63024522e-07,6.22154242,4.39868780,1.83607277,-2.84509849,5.20072209,7.07681910,-1.41477177,-1,-0.9926154634656518
2.94771948e+02,1.09999057e+02,-4.69525857e-07,6.22174457,4.39964051,1.83426842,-2.84509849,5.30112933,7.07836324,-1.41030693,-1,-0.9919437921853897
3.00707089e+02,1.09999054e+02,-4.76062761e-07,6.22194599,4.40059787,1.83245442,-2.84509849,5.40232042,7.07991461,-1.40582115,-1,-0.9912684382368997
3.06642231e+02,1.09999051e+02,-4.82599665e-07,6.22214741,4.40155522,1.83064041,-2.84509849,5.50351150,7.08146598,-1.40133536,-1,-0.9905930841746206
3.12577372e+02,1.09999048e+02,-4.89136569e-07,6.22234884,4.40251258,1.82882641,-2.84509849,5.60470258,7.08301735,-1.39684958,-1,-0.9899177302261305
3.18512514e+02,1.09999045e+02,-4.95673474e-07,6.22255026,4.40346994,1.82701240,-2.84509849,5.70589366,7.08456872,-1.39236380,-1,-0.9892423761638515
3.24863602e+02,1.09999042e+02,-5.02707589e-07,6.22273896,4.40448751,1.82507162,-2.84509849,5.81859745,7.08620851,-1.38762172,-1,-0.988519692008916
3.31386795e+02,1.09999038e+02,-5.09947437e-07,6.22292239,4.40552999,1.82307837,-2.84509849,5.93606487,7.08788489,-1.38277360,-1,-0.987777424192648
3.37909989e+02,1.09999035e+02,-5.17187284e-07,6.22310582,4.40657246,1.82108513,-2.84509849,6.05353228,7.08956127,-1.37792547,-1,-0.987035156262591
3.44433182e+02,1.09999031e+02,-5.24427132e-07,6.22328925,4.40761494,1.81909189,-2.84509849,6.17099969,7.09123765,-1.37307735,-1,-0.986292888446323
3.50956376e+02,1.09999028e+02,-5.31666979e-07,6.22347268,4.40865742,1.81709865,-2.84509849,6.28846710,7.09291403,-1.36822922,-1,-0.9855506205162661
3.58097627e+02,1.09999024e+02,-5.38438611e-07,6.22363039,4.40977277,1.81494681,-2.84509849,6.40930803,7.09471455,-1.36302120,-1,-0.9847380244785293
3.65262801e+02,1.09999020e+02,-5.45192120e-07,6.22378710,4.41089094,1.81278882,-2.84509849,6.53027952,7.09651987,-1.35779925,-1,-0.9839227062657829
3.72427974e+02,1.09999016e+02,-5.51945629e-07,6.22394382,4.41200911,1.81063084,-2.84509849,6.65125102,7.09832519,-1.35257730,-1,-0.9831073881668255
3.79593148e+02,1.09999012e+02,-5.58699139e-07,6.22410053,4.41312728,1.80847285,-2.84509849,6.77222252,7.10013051,-1.34735535,-1,-0.982292069954079
3.86758322e+02,1.09999007e+02,-5.65452648e-07,6.22425724,4.41424545,1.80631487,-2.84509849,6.89319402,7.10193584,-1.34213340,-1,-0.9814767517413325
3.94516621e+02,1.09999003e+02,-5.72815195e-07,6.22438783,4.41544278,1.80398550,-2.84509849,7.03155545,7.10385335,-1.33658622,-1,-0.9805939424090494
4.02442848e+02,1.09998998e+02,-5.80350174e-07,6.22451101,4.41666253,1.80160760,-2.84509849,7.17484036,7.10580264,-1.33094695,-1,-0.9796920247122199
4.10369074e+02,1.09998993e+02,-5.87885153e-07,6.22463419,4.41788227,1.79922971,-2.84509849,7.31812527,7.10775192,-1.32530768,-1,-0.9787901071291795
4.18295301e+02,1.09998988e+02,-5.95420132e-07,6.22475738,4.41910201,1.79685181,-2.84509849,7.46141018,7.10970121,-1.31966842,-1,-0.97788818943235
4.26221527e+02,1.09998983e+02,-6.02955111e-07,6.22488056,4.42032176,1.79447392,-2.84509849,7.60469508,7.11165049,-1.31402915,-1,-0.9769862718493095
4.34267746e+02,1.09998979e+02,-6.11172787e-07,6.22499961,4.42155621,1.79206453,-2.84509849,7.75912667,7.11362256,-1.30832373,-1,-0.976070700378966
4.42960613e+02,1.09998973e+02,-6.23069588e-07,6.22509636,4.42286996,1.78948542,-2.84509849,7.97362886,7.11571743,-1.30226177,-1,-0.9750815474587323
4.51653481e+02,1.09998967e+02,-6.34966390e-07,6.22519312,4.42418370,1.78690631,-2.84509849,8.18813106,7.11781229,-1.29619982,-1,-0.9740923944247096
4.60346348e+02,1.09998961e+02,-6.46863192e-07,6.22528987,4.42549745,1.78432720,-2.84509849,8.40263325,7.11990715,-1.29013786,-1,-0.9731032415044759
4.69039216e+02,1.09998956e+02,-6.58759993e-07,6.22538663,4.42681119,1.78174809,-2.84509849,8.61713545,7.12200201,-1.28407590,-1,-0.9721140884704532
4.78267190e+02,1.09998949e+02,-6.70680972e-07,6.22546287,4.42818652,1.77903555,-2.84509850,8.84561157,7.12419248,-1.27773623,-1,-0.9710640462427347
4.87633923e+02,1.09998942e+02,-6.82608219e-07,6.22553379,4.42957782,1.77628841,-2.84509850,9.07771126,7.12640774,-1.27132455,-1,-0.9699982147627408
4.97000656e+02,1.09998936e+02,-6.94535466e-07,6.22560471,4.43096912,1.77354127,-2.84509850,9.30981095,7.12862300,-1.26491286,-1,-0.9689323832827471
5.06386262e+02,1.09998929e+02,-7.06473696e-07,6.22567485,4.43236220,1.77079018,-2.84509850,9.54256408,7.13084147,-1.25849186,-1,-0.9678644042623545
5.16392618e+02,1.09998922e+02,-7.18773153e-07,6.22571939,4.43381378,1.76790929,-2.84509850,9.79680940,7.13316546,-1.25176443,-1,-0.9667257907004194
5.26398974e+02,1.09998914e+02,-7.31072610e-07,6.22576393,4.43526536,1.76502840,-2.84509850,1.00510547e+01,7.13548944,-1.24503699,-1,-0.9655871771384843
5.36405330e+02,1.09998907e+02,-7.43372068e-07,6.22580847,4.43671694,1.76214752,-2.84509850,1.03053000e+01,7.13781343,-1.23830956,-1,-0.9644485635765492
5.46822837e+02,1.09998899e+02,-7.54674835e-07,6.22583395,4.43821161,1.75917091,-2.84509850,1.05576262e+01,7.14020114,-1.23139621,-1,-0.9632631655403656
5.57512964e+02,1.09998890e+02,-7.65316730e-07,6.22584680,4.43973486,1.75613083,-2.84509850,1.08086800e+01,7.14263109,-1.22435959,-1,-0.9620467463383096
5.68203091e+02,1.09998882e+02,-7.75958624e-07,6.22585964,4.44125811,1.75309076,-2.84509850,1.10597337e+01,7.14506105,-1.21732297,-1,-0.9608303271362536
5.78893218e+02,1.09998873e+02,-7.86600518e-07,6.22587249,4.44278136,1.75005068,-2.84509850,1.13107874e+01,7.14749101,-1.21028636,-1,-0.9596139079341975
5.90198693e+02,1.09998864e+02,-7.97876382e-07,6.22585946,4.44435748,1.74689192,-2.84509850,1.15893509e+01,7.15001138,-1.20298624,-1,-0.9583274688789493
6.01708647e+02,1.09998854e+02,-8.09362914e-07,6.22583784,4.44595118,1.74369371,-2.84509850,1.18770560e+01,7.15256180,-1.19559856,-1,-0.9570177623562501
6.13218602e+02,1.09998845e+02,-8.20849447e-07,6.22581621,4.44754488,1.74049550,-2.84509851,1.21647610e+01,7.15511221,-1.18821089,-1,-0.955708055719762
6.24728557e+02,1.09998835e+02,-8.32335979e-07,6.22579459,4.44913858,1.73729729,-2.84509851,1.24524660e+01,7.15766263,-1.18082321,-1,-0.9543983490832739
6.36614363e+02,1.09998825e+02,-8.46476108e-07,6.22576102,4.45076689,1.73402388,-2.84509851,1.27941711e+01,7.16026982,-1.17326975,-1,-0.953045874725363
6.48943424e+02,1.09998814e+02,-8.63745722e-07,6.22571337,4.45243603,1.73066177,-2.84509851,1.31995605e+01,7.16294397,-1.16552080,-1,-0.9516429628101237
6.61272485e+02,1.09998803e+02,-8.81015336e-07,6.22566572,4.45410517,1.72729967,-2.84509851,1.36049499e+01,7.16561812,-1.15777184,-1,-0.9502400508948845
6.73643213e+02,1.09998792e+02,-8.98246381e-07,6.22561668,4.45577767,1.72393015,-2.84509851,1.40115480e+01,7.16829814,-1.15000573,-1,-0.9488323977320539
6.86696205e+02,1.09998779e+02,-9.14845907e-07,6.22554503,4.45750519,1.72043929,-2.84509851,1.44379390e+01,7.17107434,-1.14195883,-1,-0.9473471104091732
6.99749196e+02,1.09998767e+02,-9.31445433e-07,6.22547338,4.45923271,1.71694842,-2.84509851,1.48643300e+01,7.17385055,-1.13391193,-1,-0.9458618232000816
7.12843074e+02,1.09998754e+02,-9.48042333e-07,6.22540038,4.46096325,1.71345084,-2.84509852,1.52924936e+01,7.17663222,-1.12584906,-1,-0.9443718834988434
7.26583981e+02,1.09998741e+02,-9.64597667e-07,6.22530615,4.46274163,1.70984696,-2.84509852,1.57487092e+01,7.17950041,-1.11753354,-1,-0.9428083189940938
7.40324888e+02,1.09998727e+02,-9.81153001e-07,6.22521192,4.46452001,1.70624308,-2.84509852,1.62049247e+01,7.18236861,-1.10921802,-1,-0.9412447544893441
7.54273275e+02,1.09998713e+02,-9.97015083e-07,6.22511088,4.46631068,1.70261122,-2.84509852,1.66583587e+01,7.18526140,-1.10083030,-1,-0.939657581036259
7.68763311e+02,1.09998698e+02,-1.01106736e-06,6.22499206,4.46813344,1.69890631,-2.84509852,1.71045315e+01,7.18821840,-1.09225409,-1,-0.9380087738678424
7.83253347e+02,1.09998683e+02,-1.02511963e-06,6.22487324,4.46995619,1.69520139,-2.84509852,1.75507043e+01,7.19117539,-1.08367788,-1,-0.9363599666994259
7.97842202e+02,1.09998668e+02,-1.03923505e-06,6.22475185,4.47178464,1.69148380,-2.84509853,1.80021170e+01,7.19414360,-1.07506885,-1,-0.9346999150126676
8.13225587e+02,1.09998651e+02,-1.05385818e-06,6.22460981,4.47365887,1.68766432,-2.84509853,1.84956602e+01,7.19720195,-1.06619591,-1,-0.9329494545264058
8.28608972e+02,1.09998634e+02,-1.06848132e-06,6.22446777,4.47553310,1.68384484,-2.84509853,1.89892034e+01,7.20026030,-1.05732297,-1,-0.931198994040144
8.43992358e+02,1.09998617e+02,-1.08310445e-06,6.22432572,4.47740733,1.68002536,-2.84509853,1.94827465e+01,7.20331866,-1.04845004,-1,-0.929448533440093
8.59850138e+02,1.09998600e+02,-1.10120349e-06,6.22417440,4.47931321,1.67613794,-2.84509854,2.00630337e+01,7.20643371,-1.03941019,-1,-0.9276440920060502
8.76125823e+02,1.09998581e+02,-1.12236455e-06,6.22401491,4.48124697,1.67219066,-2.84509854,2.07197355e+01,7.20959870,-1.03022332,-1,-0.9257920975666376
8.92401508e+02,1.09998562e+02,-1.14352560e-06,6.22385541,4.48318074,1.66824338,-2.84509854,2.13764373e+01,7.21276370,-1.02103645,-1,-0.9239401031272249
9.09182171e+02,1.09998542e+02,-1.16386925e-06,6.22368577,4.48514420,1.66423164,-2.84509854,2.20461462e+01,7.21598412,-1.01168736,-1,-0.922030647730069
9.26254018e+02,1.09998522e+02,-1.18374156e-06,6.22351029,4.48712478,1.66018273,-2.84509855,2.27233554e+01,7.21923651,-1.00224473,-1,-0.9200880587874529
9.43357176e+02,1.09998501e+02,-1.20359602e-06,6.22333422,4.48910705,1.65613017,-2.84509855,2.34019522e+01,7.22249216,-9.92792550e-01,-1,-0.9181419069964594
9.61190563e+02,1.09998479e+02,-1.22303402e-06,6.22314474,4.49112849,1.65199254,-2.84509855,2.41129123e+01,7.22582380,-9.83117725e-01,-1,-0.9161126631545017
9.79023950e+02,1.09998457e+02,-1.24247201e-06,6.22295526,4.49314993,1.64785492,-2.84509856,2.48238724e+01,7.22915544,-9.73442901e-01,-1,-0.9140834193125439
9.97362067e+02,1.09998433e+02,-1.25996847e-06,6.22275818,4.49519321,1.64366983,-2.84509856,2.55215759e+01,7.23253326,-9.63632073e-01,-1,-0.911996742732523
1.01602789e+03,1.09998409e+02,-1.27620431e-06,6.22255616,4.49725065,1.63945393,-2.84509857,2.62106723e+01,7.23594108,-9.53732942e-01,-1,-0.9098727768040191
1.03469372e+03,1.09998385e+02,-1.29244016e-06,6.22235414,4.49930809,1.63523804,-2.84509857,2.68997687e+01,7.23934890,-9.43833811e-01,-1,-0.907748810078992
1.05416965e+03,1.09998359e+02,-1.30895249e-06,6.22214424,4.50139918,1.63095091,-2.84509857,2.76343020e+01,7.24282674,-9.33727441e-01,-1,-0.9055326628592351
1.07382962e+03,1.09998332e+02,-1.32552762e-06,6.22193256,4.50349791,1.62664761,-2.84509858,2.83791575e+01,7.24632048,-9.23573992e-01,-1,-0.90329557390605
1.09348958e+03,1.09998306e+02,-1.34210276e-06,6.22172088,4.50559664,1.62234431,-2.84509858,2.91240129e+01,7.24981422,-9.13420543e-01,-1,-0.9010584860907552
1.11377858e+03,1.09998278e+02,-1.36302465e-06,6.22150415,4.50772676,1.61797571,-2.84509859,2.99999585e+01,7.25336762,-9.03091161e-01,-1,-0.8987498204228437
1.13442989e+03,1.09998248e+02,-1.38645016e-06,6.22128451,4.50987496,1.61356949,-2.84509859,3.09514083e+01,7.25695537,-8.92660446e-01,-1,-0.8963999278507899
1.15511213e+03,1.09998219e+02,-1.40981013e-06,6.22106462,4.51202453,1.60916040,-2.84509860,3.19033069e+01,7.26054581,-8.82221849e-01,-1,-0.8940465157839799
1.17665054e+03,1.09998188e+02,-1.43135598e-06,6.22083770,4.51421212,1.60467176,-2.84509861,3.28676282e+01,7.26421046,-8.71565110e-01,-1,-0.8915956809617411
1.19818894e+03,1.09998156e+02,-1.45290184e-06,6.22061078,4.51639971,1.60018313,-2.84509861,3.38319496e+01,7.26787512,-8.60908370e-01,-1,-0.8891448472773926
1.22031498e+03,1.09998123e+02,-1.47385830e-06,6.22038004,4.51861140,1.59564437,-2.84509862,3.48175578e+01,7.27158740,-8.50110337e-01,-1,-0.8866271466063472
1.24270314e+03,1.09998090e+02,-1.49455184e-06,6.22014761,4.52083385,1.59108325,-2.84509862,3.58126618e+01,7.27532094,-8.39249276e-01,-1,-0.8840796195542643
1.26553624e+03,1.09998055e+02,-1.51347665e-06,6.21991391,4.52307124,1.58649162,-2.84509863,3.67887530e+01,7.27908550,-8.28296047e-01,-1,-0.8814814632103345
1.28885461e+03,1.09998019e+02,-1.53047236e-06,6.21967883,4.52532493,1.58186671,-2.84509863,3.77441078e+01,7.28288390,-8.17242292e-01,-1,-0.878828088462902
1.31217298e+03,1.09997983e+02,-1.54746807e-06,6.21944375,4.52757861,1.57724180,-2.84509863,3.86994627e+01,7.28668230,-8.06188536e-01,-1,-0.8761747137154694
1.33652182e+03,1.09997944e+02,-1.56450214e-06,6.21920862,4.52986638,1.57254871,-2.84509864,3.97065391e+01,7.29054859,-7.94933373e-01,-1,-0.8734040827843503
1.36095011e+03,1.09997905e+02,-1.58153916e-06,6.21897349,4.53215677,1.56785036,-2.84509864,4.07176037e+01,7.29442011,-7.83662680e-01,-1,-0.8706244113146482
1.38538672e+03,1.09997866e+02,-1.59862572e-06,6.21873834,4.53444751,1.56315131,-2.84509865,4.17304284e+01,7.29829226,-7.72390138e-01,-1,-0.8678437931202008
1.41091596e+03,1.09997823e+02,-1.62221762e-06,6.21850116,4.53678368,1.55836038,-2.84509865,4.29743852e+01,7.30224630,-7.60874846e-01,-1,-0.8649388456158449
1.43644521e+03,1.09997781e+02,-1.64580953e-06,6.21826398,4.53911984,1.55356945,-2.84509866,4.42183421e+01,7.30620035,-7.49359555e-01,-1,-0.8620338969735988
1.46257426e+03,1.09997737e+02,-1.66795889e-06,6.21802559,4.54147858,1.54873278,-2.84509866,4.54578995e+01,7.31019510,-7.37723565e-01,-1,-0.8590606976700281
1.48908760e+03,1.09997692e+02,-1.68918404e-06,6.21778644,4.54385179,1.54386679,-2.84509866,4.66946383e+01,7.31421592,-7.26010246e-01,-1,-0.8560437703793944
1.51601623e+03,1.09997646e+02,-1.70985854e-06,6.21754700,4.54623966,1.53897134,-2.84509867,4.79373867e+01,7.31826280,-7.14219748e-01,-1,-0.8529795876417093
1.54347071e+03,1.09997598e+02,-1.72983580e-06,6.21730721,4.54864609,1.53403857,-2.84509867,4.91877445e+01,7.32234266,-7.02331524e-01,-1,-0.8498555689416075
1.57132621e+03,1.09997549e+02,-1.74828896e-06,6.21706828,4.55106401,1.52908327,-2.84509867,5.04113281e+01,7.32644362,-6.90380497e-01,-1,-0.8466859185639393
1.59981276e+03,1.09997498e+02,-1.76434386e-06,6.21683073,4.55350001,1.52409251,-2.84509868,5.15927817e+01,7.33057778,-6.78330649e-01,-1,-0.8434444616177001
1.62831731e+03,1.09997447e+02,-1.78039403e-06,6.21659323,4.55593649,1.51910080,-2.84509868,5.27747907e+01,7.33471284,-6.66278126e-01,-1,-0.8402009564688869
1.65803823e+03,1.09997393e+02,-1.79612433e-06,6.21635934,4.55840593,1.51404496,-2.84509869,5.39943444e+01,7.33890828,-6.54044877e-01,-1,-0.83681904175536
1.68775916e+03,1.09997339e+02,-1.81185464e-06,6.21612545,4.56087537,1.50898913,-2.84509869,5.52138981e+01,7.34310372,-6.41811629e-01,-1,-0.8334371259039429
1.71782720e+03,1.09997284e+02,-1.82914583e-06,6.21589145,4.56335640,1.50391008,-2.84509870,5.64976728e+01,7.34731978,-6.29516736e-01,-1,-0.8300157127416682
1.74876989e+03,1.09997226e+02,-1.85037007e-06,6.21565720,4.56586661,1.49877254,-2.84509870,5.79432676e+01,7.35158781,-6.17066516e-01,-1,-0.8264947740026554
1.77975831e+03,1.09997168e+02,-1.87147785e-06,6.21542295,4.56837812,1.49363239,-2.84509871,5.93874158e+01,7.35585830,-6.04609137e-01,-1,-0.8229686316912145
1.81179553e+03,1.09997107e+02,-1.88991525e-06,6.21518851,4.57091962,1.48843218,-2.84509872,6.07983962e+01,7.36018484,-5.91987626e-01,-1,-0.8193231474431327
1.84384610e+03,1.09997046e+02,-1.90833148e-06,6.21495408,4.57346145,1.48323129,-2.84509872,6.22092900e+01,7.36451204,-5.79364145e-01,-1,-0.8156761441114753
1.87693249e+03,1.09996981e+02,-1.92510532e-06,6.21472047,4.57602971,1.47797797,-2.84509873,6.36134766e+01,7.36889048,-5.66587849e-01,-1,-0.8119112758248109
1.91012159e+03,1.09996917e+02,-1.94154453e-06,6.21448715,4.57859996,1.47272081,-2.84509874,6.50102149e+01,7.37327300,-5.53799451e-01,-1,-0.8081347202666818
1.94436328e+03,1.09996850e+02,-1.95455446e-06,6.21425686,4.58119061,1.46742436,-2.84509875,6.63306228e+01,7.37769738,-5.40887020e-01,-1,-0.8042383915114808
1.97860497e+03,1.09996782e+02,-1.96756439e-06,6.21402658,4.58378126,1.46212791,-2.84509877,6.76510307e+01,7.38212175,-5.27974589e-01,-1,-0.8003420627562798
2.01403335e+03,1.09996711e+02,-1.97991503e-06,6.21379965,4.58639374,1.45678950,-2.84509878,6.89833223e+01,7.38659131,-5.14928575e-01,-1,-0.7963107016948315
2.04965779e+03,1.09996640e+02,-1.99215675e-06,6.21357328,4.58900982,1.45144415,-2.84509880,7.03175772e+01,7.39106833,-5.01860490e-01,-1,-0.7922570311557918
2.08567152e+03,1.09996568e+02,-2.00537038e-06,6.21334678,4.59163544,1.44607966,-2.84509881,7.16981868e+01,7.39556371,-4.88738669e-01,-1,-0.7881590636845297
2.12266060e+03,1.09996492e+02,-2.02101906e-06,6.21311995,4.59428494,1.44066724,-2.84509882,7.31949337e+01,7.40010511,-4.75482219e-01,-1,-0.7839501120810186
2.15985224e+03,1.09996417e+02,-2.03619130e-06,6.21289318,4.59693865,1.43524643,-2.84509883,7.46793248e+01,7.40465492,-4.62201482e-01,-1,-0.779718111371209
2.19806652e+03,1.09996338e+02,-2.04895818e-06,6.21266669,4.59961362,1.42978325,-2.84509884,7.61013357e+01,7.40924714,-4.48798135e-01,-1,-0.7753697454458328
2.23656491e+03,1.09996259e+02,-2.06127267e-06,6.21244049,4.60229379,1.42430982,-2.84509885,7.75115347e+01,7.41385013,-4.35364206e-01,-1,-0.7709890509186076
2.27595677e+03,1.09996177e+02,-2.07216441e-06,6.21221519,4.60499029,1.41880416,-2.84509886,7.88845870e+01,7.41848699,-4.21834107e-01,-1,-0.7665066893050644
2.31588598e+03,1.09996093e+02,-2.08180904e-06,6.21199134,4.60769352,1.41328579,-2.84509888,8.02168654e+01,7.42313956,-4.08260295e-01,-1,-0.7619631831552377
2.35658182e+03,1.09996008e+02,-2.08967446e-06,6.21176955,4.61040633,1.40774928,-2.84509890,8.14909732e+01,7.42781456,-3.94624123e-01,-1,-0.7573324429198973
2.39772827e+03,1.09995922e+02,-2.09721485e-06,6.21154886,4.61312410,1.40220338,-2.84509893,8.27577234e+01,7.43250186,-3.80955148e-01,-1,-0.7526504282088992
2.43999196e+03,1.09995832e+02,-2.10394937e-06,6.21133088,4.61585419,1.39663422,-2.84509896,8.40062311e+01,7.43721966,-3.67204846e-01,-1,-0.747841283839918
2.48225564e+03,1.09995743e+02,-2.11068388e-06,6.21111291,4.61858427,1.39106507,-2.84509898,8.52547387e+01,7.44193746,-3.53454543e-01,-1,-0.7430321406088272
