star_age,star_mass,star_mdot,log_L,log_Teff,log_R,log_surf_z,v_wind_Km_per_s,log_center_T,log_center_Rho,phase,x
3.87024407e+02,1.74997866e+02,-5.39226781e-06,6.51495330,4.62012203,1.53990974,-2.84509859,1.43478113e+02,7.41250229,-6.13139833e-01,-1,-1.0
3.92734179e+02,1.74997836e+02,-5.39042244e-06,6.51477118,4.62064174,1.53877926,-2.84509859,1.43775578e+02,7.41334255,-6.10631717e-01,-1,-0.9989423472121888
3.98443951e+02,1.74997805e+02,-5.38857708e-06,6.51458905,4.62116144,1.53764879,-2.84509859,1.44073044e+02,7.41418281,-6.08123601e-01,-1,-0.9978846944243775
4.04153724e+02,1.74997774e+02,-5.38673171e-06,6.51440693,4.62168115,1.53651832,-2.84509859,1.44370509e+02,7.41502308,-6.05615485e-01,-1,-0.9968270414513307
4.09863496e+02,1.74997743e+02,-5.38488635e-06,6.51422480,4.62220085,1.53538785,-2.84509860,1.44667975e+02,7.41586334,-6.03107369e-01,-1,-0.9957693886635195
4.15573268e+02,1.74997713e+02,-5.38304098e-06,6.51404267,4.62272056,1.53425737,-2.84509860,1.44965440e+02,7.41670360,-6.00599253e-01,-1,-0.9947117358757083
4.21283040e+02,1.74997682e+02,-5.38119561e-06,6.51386055,4.62324026,1.53312690,-2.84509860,1.45262906e+02,7.41754387,-5.98091136e-01,-1,-0.993654083087897
4.26992812e+02,1.74997651e+02,-5.37935025e-06,6.51367842,4.62375997,1.53199643,-2.84509860,1.45560371e+02,7.41838413,-5.95583020e-01,-1,-0.9925964303000858
4.32702584e+02,1.74997621e+02,-5.37750488e-06,6.51349630,4.62427967,1.53086595,-2.84509860,1.45857837e+02,7.41922440,-5.93074904e-01,-1,-0.9915387775122746
4.38412356e+02,1.74997590e+02,-5.37565952e-06,6.51331417,4.62479938,1.52973548,-2.84509860,1.46155302e+02,7.42006466,-5.90566788e-01,-1,-0.9904811247244634
4.44122128e+02,1.74997559e+02,-5.37381415e-06,6.51313204,4.62531908,1.52860501,-2.84509861,1.46452767e+02,7.42090492,-5.88058672e-01,-1,-0.9894234719366521
4.50514783e+02,1.74997525e+02,-5.37168250e-06,6.51295000,4.62588350,1.52738515,-2.84509861,1.46768789e+02,7.42182755,-5.85304397e-01,-1,-0.9882393249370407
4.56995337e+02,1.74997490e+02,-5.36951401e-06,6.51276797,4.62645368,1.52615378,-2.84509861,1.47087199e+02,7.42276078,-5.82518438e-01,-1,-0.9870388959173423
4.63475890e+02,1.74997456e+02,-5.36734551e-06,6.51258594,4.62702385,1.52492242,-2.84509861,1.47405608e+02,7.42369401,-5.79732479e-01,-1,-0.9858384670828795
4.69956444e+02,1.74997421e+02,-5.36517701e-06,6.51240391,4.62759403,1.52369105,-2.84509861,1.47724018e+02,7.42462724,-5.76946520e-01,-1,-0.9846380380631811
4.76436997e+02,1.74997386e+02,-5.36300851e-06,6.51222187,4.62816420,1.52245969,-2.84509862,1.48042428e+02,7.42556047,-5.74160561e-01,-1,-0.9834376092287183
4.82917551e+02,1.74997352e+02,-5.36084002e-06,6.51203984,4.62873438,1.52122832,-2.84509862,1.48360838e+02,7.42649369,-5.71374602e-01,-1,-0.9822371802090198
4.89398104e+02,1.74997317e+02,-5.35867152e-06,6.51185781,4.62930455,1.51999695,-2.84509862,1.48679248e+02,7.42742692,-5.68588643e-01,-1,-0.981036751374557
4.95878657e+02,1.74997282e+02,-5.35650302e-06,6.51167578,4.62987473,1.51876559,-2.84509862,1.48997657e+02,7.42836015,-5.65802684e-01,-1,-0.9798363225400942
5.02587934e+02,1.74997246e+02,-5.35433226e-06,6.51149491,4.63045848,1.51750765,-2.84509862,1.49323946e+02,7.42931909,-5.62939599e-01,-1,-0.9785935258884507
5.09894949e+02,1.74997207e+02,-5.35215556e-06,6.51131711,4.63107773,1.51618024,-2.84509863,1.49670825e+02,7.43034522,-5.59874954e-01,-1,-0.9772400069063744
5.17201965e+02,1.74997168e+02,-5.34997886e-06,6.51113930,4.63169698,1.51485284,-2.84509863,1.50017703e+02,7.43137135,-5.56810309e-01,-1,-0.9758864877390623
5.24508980e+02,1.74997129e+02,-5.34780216e-06,6.51096149,4.63231623,1.51352544,-2.84509863,1.50364582e+02,7.43239749,-5.53745663e-01,-1,-0.9745329687569859
5.31815996e+02,1.74997090e+02,-5.34562546e-06,6.51078368,4.63293548,1.51219803,-2.84509864,1.50711460e+02,7.43342362,-5.50681018e-01,-1,-0.973179449589674
5.39123012e+02,1.74997051e+02,-5.34344876e-06,6.51060587,4.63355473,1.51087063,-2.84509864,1.51058339e+02,7.43444975,-5.47616373e-01,-1,-0.9718259304223619
5.46430027e+02,1.74997012e+02,-5.34127206e-06,6.51042806,4.63417398,1.50954323,-2.84509864,1.51405217e+02,7.43547588,-5.44551728e-01,-1,-0.9704724114402855
5.53737043e+02,1.74996973e+02,-5.33909536e-06,6.51025025,4.63479323,1.50821582,-2.84509865,1.51752096e+02,7.43650201,-5.41487082e-01,-1,-0.9691188922729735
5.61044058e+02,1.74996934e+02,-5.33691866e-06,6.51007244,4.63541248,1.50688842,-2.84509865,1.52098975e+02,7.43752814,-5.38422437e-01,-1,-0.9677653732908971
5.68463791e+02,1.74996895e+02,-5.33468298e-06,6.50989529,4.63603800,1.50554879,-2.84509865,1.52447893e+02,7.43856629,-5.35321803e-01,-1,-0.9663909749274835
5.76757904e+02,1.74996851e+02,-5.33198972e-06,6.50972323,4.63671222,1.50411433,-2.84509866,1.52812632e+02,7.43969764,-5.31941991e-01,-1,-0.964854610299111
5.85052017e+02,1.74996807e+02,-5.32929646e-06,6.50955116,4.63738643,1.50267987,-2.84509866,1.53177371e+02,7.44082898,-5.28562178e-01,-1,-0.9633182456707385
5.93346130e+02,1.74996763e+02,-5.32660320e-06,6.50937910,4.63806064,1.50124541,-2.84509866,1.53542110e+02,7.44196033,-5.25182366e-01,-1,-0.9617818810423661
6.01640244e+02,1.74996719e+02,-5.32390994e-06,6.50920703,4.63873486,1.49981095,-2.84509867,1.53906849e+02,7.44309168,-5.21802554e-01,-1,-0.9602455162287581
6.09934357e+02,1.74996675e+02,-5.32121668e-06,6.50903497,4.63940907,1.49837649,-2.84509867,1.54271588e+02,7.44422303,-5.18422742e-01,-1,-0.9587091516003856
6.18228470e+02,1.74996631e+02,-5.31852342e-06,6.50886290,4.64008329,1.49694203,-2.84509868,1.54636328e+02,7.44535438,-5.15042930e-01,-1,-0.9571727869720132
6.26522583e+02,1.74996587e+02,-5.31583016e-06,6.50869084,4.64075750,1.49550757,-2.84509868,1.55001067e+02,7.44648573,-5.11663118e-01,-1,-0.9556364223436408
6.34816696e+02,1.74996543e+02,-5.31313690e-06,6.50851877,4.64143171,1.49407311,-2.84509868,1.55365806e+02,7.44761708,-5.08283305e-01,-1,-0.9541000577152683
6.43110809e+02,1.74996499e+02,-5.31044364e-06,6.50834671,4.64210593,1.49263865,-2.84509869,1.55730545e+02,7.44874843,-5.04903493e-01,-1,-0.9525636930868959
6.51834493e+02,1.74996452e+02,-5.30690807e-06,6.50817566,4.64280406,1.49115686,-2.84509869,1.56084956e+02,7.44992515,-5.01387569e-01,-1,-0.9509477566357408
6.61133068e+02,1.74996403e+02,-5.30224526e-06,6.50800597,4.64353421,1.48961172,-2.84509869,1.56425544e+02,7.45116258,-4.97689489e-01,-1,-0.9492253299308879
6.70431643e+02,1.74996354e+02,-5.29758245e-06,6.50783628,4.64426435,1.48806659,-2.84509869,1.56766132e+02,7.45240001,-4.93991409e-01,-1,-0.9475029032260349
6.79730218e+02,1.74996305e+02,-5.29291964e-06,6.50766659,4.64499450,1.48652145,-2.84509870,1.57106720e+02,7.45363744,-4.90293328e-01,-1,-0.9457804765211819
6.89028793e+02,1.74996256e+02,-5.28825683e-06,6.50749691,4.64572465,1.48497631,-2.84509870,1.57447308e+02,7.45487487,-4.86595248e-01,-1,-0.9440580498163289
6.98327368e+02,1.74996207e+02,-5.28359402e-06,6.50732722,4.64645479,1.48343118,-2.84509870,1.57787896e+02,7.45611230,-4.82897167e-01,-1,-0.9423356231114759
7.07625943e+02,1.74996158e+02,-5.27893121e-06,6.50715753,4.64718494,1.48188604,-2.84509871,1.58128485e+02,7.45734973,-4.79199087e-01,-1,-0.940613196406623
7.16924518e+02,1.74996109e+02,-5.27426839e-06,6.50698784,4.64791508,1.48034091,-2.84509871,1.58469073e+02,7.45858716,-4.75501007e-01,-1,-0.93889076970177
7.27076116e+02,1.74996056e+02,-5.26899456e-06,6.50682200,4.64868887,1.47871042,-2.84509871,1.58816491e+02,7.45990888,-4.71550412e-01,-1,-0.9370103328077155
7.37276603e+02,1.74996003e+02,-5.26368570e-06,6.50665639,4.64946515,1.47707505,-2.84509871,1.59164301e+02,7.46123543,-4.67585345e-01,-1,-0.9351208399325915
7.47477091e+02,1.74995949e+02,-5.25837685e-06,6.50649077,4.65024143,1.47543967,-2.84509872,1.59512111e+02,7.46256197,-4.63620278e-01,-1,-0.9332313468722321
7.57677578e+02,1.74995896e+02,-5.25306799e-06,6.50632516,4.65101772,1.47380430,-2.84509872,1.59859921e+02,7.46388852,-4.59655211e-01,-1,-0.9313418539971081
7.67878065e+02,1.74995842e+02,-5.24775914e-06,6.50615954,4.65179400,1.47216892,-2.84509872,1.60207731e+02,7.46521507,-4.55690143e-01,-1,-0.9294523611219841
7.78078553e+02,1.74995789e+02,-5.24245028e-06,6.50599392,4.65257028,1.47053355,-2.84509873,1.60555541e+02,7.46654162,-4.51725076e-01,-1,-0.9275628680616246
7.88693591e+02,1.74995733e+02,-5.23678465e-06,6.50583060,4.65336632,1.46885982,-2.84509873,1.60903436e+02,7.46790675,-4.47644294e-01,-1,-0.9255965856017607
7.99763303e+02,1.74995676e+02,-5.23072771e-06,6.50566979,4.65418401,1.46714402,-2.84509874,1.61251423e+02,7.46931421,-4.43436598e-01,-1,-0.9235460813509662
8.10833014e+02,1.74995618e+02,-5.22467077e-06,6.50550897,4.65500171,1.46542821,-2.84509874,1.61599410e+02,7.47072167,-4.39228902e-01,-1,-0.9214955772854072
8.21902726e+02,1.74995560e+02,-5.21861383e-06,6.50534816,4.65581941,1.46371241,-2.84509874,1.61947398e+02,7.47212913,-4.35021206e-01,-1,-0.9194450730346128
8.32972438e+02,1.74995503e+02,-5.21255689e-06,6.50518735,4.65663711,1.46199661,-2.84509875,1.62295385e+02,7.47353658,-4.30813510e-01,-1,-0.9173945687838182
8.44042149e+02,1.74995445e+02,-5.20649995e-06,6.50502653,4.65745481,1.46028081,-2.84509875,1.62643372e+02,7.47494404,-4.26605814e-01,-1,-0.9153440647182592
8.55656151e+02,1.74995385e+02,-5.20055959e-06,6.50486979,4.65829550,1.45852105,-2.84509876,1.63007367e+02,7.47639735,-4.22260157e-01,-1,-0.9131927386069986
8.67672056e+02,1.74995323e+02,-5.19470532e-06,6.50471606,4.65915317,1.45672883,-2.84509876,1.63383182e+02,7.47788450,-4.17812629e-01,-1,-0.910966965770303
8.79687961e+02,1.74995261e+02,-5.18885105e-06,6.50456232,4.66001085,1.45493662,-2.84509877,1.63758997e+02,7.47937166,-4.13365102e-01,-1,-0.9087411929336074
8.91703866e+02,1.74995199e+02,-5.18299679e-06,6.50440859,4.66086852,1.45314440,-2.84509878,1.64134812e+02,7.48085882,-4.08917574e-01,-1,-0.9065154200969119
9.03719771e+02,1.74995137e+02,-5.17714252e-06,6.50425485,4.66172620,1.45135219,-2.84509879,1.64510627e+02,7.48234598,-4.04470046e-01,-1,-0.9042896472602163
9.15735676e+02,1.74995075e+02,-5.17128825e-06,6.50410112,4.66258387,1.44955997,-2.84509879,1.64886442e+02,7.48383313,-4.00022519e-01,-1,-0.9020638744235208
9.27809133e+02,1.74995012e+02,-5.16538396e-06,6.50394777,4.66344378,1.44776347,-2.84509880,1.65261831e+02,7.48532478,-3.95561503e-01,-1,-0.8998274409101389
9.40955684e+02,1.74994945e+02,-5.15854706e-06,6.50380160,4.66434546,1.44588704,-2.84509881,1.65629260e+02,7.48690013,-3.90848993e-01,-1,-0.8973922322336362
9.54102235e+02,1.74994878e+02,-5.15171016e-06,6.50365544,4.66524713,1.44401062,-2.84509882,1.65996690e+02,7.48847549,-3.86136484e-01,-1,-0.8949570235571334
9.67248786e+02,1.74994811e+02,-5.14487326e-06,6.50350927,4.66614880,1.44213419,-2.84509882,1.66364119e+02,7.49005084,-3.81423974e-01,-1,-0.8925218148806306
9.80395337e+02,1.74994743e+02,-5.13803636e-06,6.50336310,4.66705047,1.44025776,-2.84509883,1.66731549e+02,7.49162620,-3.76711465e-01,-1,-0.8900866062041278
9.93541888e+02,1.74994676e+02,-5.13119946e-06,6.50321694,4.66795214,1.43838134,-2.84509884,1.67098978e+02,7.49320155,-3.71998955e-01,-1,-0.8876513975276251
1.00668844e+03,1.74994609e+02,-5.12436256e-06,6.50307077,4.66885381,1.43650491,-2.84509885,1.67466408e+02,7.49477690,-3.67286446e-01,-1,-0.8852161886658867
1.01983499e+03,1.74994542e+02,-5.11752566e-06,6.50292460,4.66975548,1.43462849,-2.84509886,1.67833837e+02,7.49635226,-3.62573936e-01,-1,-0.8827809801746196
1.03401179e+03,1.74994470e+02,-5.10699167e-06,6.50278179,4.67069775,1.43267256,-2.84509886,1.68099509e+02,7.49800751,-3.57621800e-01,-1,-0.8801549327523683
1.04830941e+03,1.74994398e+02,-5.09602409e-06,6.50263938,4.67164477,1.43070730,-2.84509887,1.68353247e+02,7.49967213,-3.52641559e-01,-1,-0.8775065051703097
1.06260703e+03,1.74994325e+02,-5.08505651e-06,6.50249697,4.67259180,1.42874204,-2.84509887,1.68606984e+02,7.50133675,-3.47661319e-01,-1,-0.8748580775882512
1.07690465e+03,1.74994253e+02,-5.07408893e-06,6.50235455,4.67353882,1.42677679,-2.84509887,1.68860722e+02,7.50300137,-3.42681079e-01,-1,-0.8722096500061927
1.09120227e+03,1.74994181e+02,-5.06312134e-06,6.50221214,4.67448584,1.42481153,-2.84509888,1.69114460e+02,7.50466599,-3.37700839e-01,-1,-0.869561222424134
1.10566685e+03,1.74994108e+02,-5.05205666e-06,6.50207036,4.67543860,1.42283513,-2.84509888,1.69367670e+02,7.50634211,-3.32686013e-01,-1,-0.8668818679137406
1.12100634e+03,1.74994031e+02,-5.04048309e-06,6.50193191,4.67642138,1.42080035,-2.84509888,1.69618121e+02,7.50807845,-3.27489938e-01,-1,-0.8640404489635438
1.13634583e+03,1.74993955e+02,-5.02890952e-06,6.50179345,4.67740416,1.41876556,-2.84509889,1.69868571e+02,7.50981479,-3.22293864e-01,-1,-0.8611990300133472
1.15168532e+03,1.74993878e+02,-5.01733595e-06,6.50165500,4.67838694,1.41673078,-2.84509889,1.70119021e+02,7.51155113,-3.17097790e-01,-1,-0.8583576110631504
1.16702481e+03,1.74993801e+02,-5.00576238e-06,6.50151655,4.67936972,1.41469599,-2.84509890,1.70369471e+02,7.51328748,-3.11901716e-01,-1,-0.8555161921129537
1.18244895e+03,1.74993724e+02,-4.99428227e-06,6.50137851,4.68035482,1.41265677,-2.84509890,1.70623762e+02,7.51502856,-3.06691381e-01,-1,-0.8526590929729897
1.19890414e+03,1.74993643e+02,-4.98394036e-06,6.50124545,4.68136814,1.41056359,-2.84509891,1.70924829e+02,7.51682741,-3.01307368e-01,-1,-0.8496110067135972
1.21535932e+03,1.74993562e+02,-4.97359846e-06,6.50111239,4.68238147,1.40847041,-2.84509892,1.71225896e+02,7.51862625,-2.95923356e-01,-1,-0.8465629223065604
1.23181450e+03,1.74993481e+02,-4.96325655e-06,6.50097933,4.68339479,1.40637723,-2.84509893,1.71526962e+02,7.52042510,-2.90539343e-01,-1,-0.8435148378995235
1.24826969e+03,1.74993399e+02,-4.95291464e-06,6.50084627,4.68440812,1.40428405,-2.84509894,1.71828029e+02,7.52222395,-2.85155331e-01,-1,-0.8404667516401312
1.26472487e+03,1.74993318e+02,-4.94257274e-06,6.50071321,4.68542144,1.40219087,-2.84509895,1.72129096e+02,7.52402280,-2.79771318e-01,-1,-0.8374186672330943
1.28169973e+03,1.74993235e+02,-4.93174231e-06,6.50058197,4.68644667,1.40007479,-2.84509896,1.72417995e+02,7.52584631,-2.74313252e-01,-1,-0.8342743196126104
1.29949319e+03,1.74993148e+02,-4.92014234e-06,6.50045359,4.68749065,1.39792264,-2.84509898,1.72687727e+02,7.52770866,-2.68738537e-01,-1,-0.8309783381664497
1.31728665e+03,1.74993062e+02,-4.90854238e-06,6.50032521,4.68853463,1.39577049,-2.84509899,1.72957460e+02,7.52957102,-2.63163821e-01,-1,-0.8276823567202891
1.33508011e+03,1.74992975e+02,-4.89694242e-06,6.50019684,4.68957861,1.39361834,-2.84509901,1.73227192e+02,7.53143338,-2.57589105e-01,-1,-0.8243863752741284
1.35287358e+03,1.74992889e+02,-4.88534245e-06,6.50006846,4.69062260,1.39146619,-2.84509902,1.73496925e+02,7.53329574,-2.52014390e-01,-1,-0.8210903919756122
1.37066704e+03,1.74992802e+02,-4.87374249e-06,6.49994008,4.69166658,1.38931404,-2.84509903,1.73766657e+02,7.53515810,-2.46439674e-01,-1,-0.8177944105294516
1.38856427e+03,1.74992715e+02,-4.86165295e-06,6.49981177,4.69271301,1.38715701,-2.84509905,1.74019704e+02,7.53702540,-2.40850096e-01,-1,-0.8144792071897037
1.40771300e+03,1.74992624e+02,-4.84365885e-06,6.49968427,4.69378909,1.38494110,-2.84509905,1.74071512e+02,7.53895242,-2.35081269e-01,-1,-0.8109321815523324
1.42686173e+03,1.74992533e+02,-4.82566474e-06,6.49955677,4.69486517,1.38272519,-2.84509906,1.74123320e+02,7.54087944,-2.29312442e-01,-1,-0.8073851559149611
1.44601046e+03,1.74992441e+02,-4.80767063e-06,6.49942926,4.69594125,1.38050929,-2.84509906,1.74175127e+02,7.54280646,-2.23543615e-01,-1,-0.8038381302775899
1.46515919e+03,1.74992350e+02,-4.78967652e-06,6.49930176,4.69701733,1.37829338,-2.84509906,1.74226935e+02,7.54473348,-2.17774788e-01,-1,-0.8002911046402186
1.48434325e+03,1.74992258e+02,-4.77168439e-06,6.49917428,4.69809404,1.37607621,-2.84509907,1.74278879e+02,7.54666181,-2.12002006e-01,-1,-0.796737534630674
1.50471567e+03,1.74992163e+02,-4.75375874e-06,6.49904757,4.69919217,1.37381660,-2.84509908,1.74335424e+02,7.54863435,-2.06096184e-01,-1,-0.7929638380964757
1.52508809e+03,1.74992067e+02,-4.73583310e-06,6.49892085,4.70029030,1.37155699,-2.84509909,1.74391969e+02,7.55060690,-2.00190363e-01,-1,-0.7891901415622777
1.54546051e+03,1.74991972e+02,-4.71790745e-06,6.49879414,4.70138842,1.36929738,-2.84509910,1.74448514e+02,7.55257944,-1.94284541e-01,-1,-0.7854164450280796
1.56583293e+03,1.74991876e+02,-4.69998180e-06,6.49866743,4.70248655,1.36703776,-2.84509911,1.74505060e+02,7.55455198,-1.88378720e-01,-1,-0.7816427484938815
1.58689834e+03,1.74991778e+02,-4.68341012e-06,6.49854138,4.70359195,1.36476394,-2.84509913,1.74611445e+02,7.55654062,-1.82424784e-01,-1,-0.7777406855721245
1.60858933e+03,1.74991678e+02,-4.66806070e-06,6.49841595,4.70470392,1.36247730,-2.84509915,1.74762821e+02,7.55854379,-1.76427417e-01,-1,-0.7737227429916002
1.63028032e+03,1.74991578e+02,-4.65271127e-06,6.49829052,4.70581588,1.36019065,-2.84509918,1.74914197e+02,7.56054697,-1.70430049e-01,-1,-0.7697048004110758
1.65197131e+03,1.74991478e+02,-4.63736185e-06,6.49816509,4.70692785,1.35790400,-2.84509921,1.75065574e+02,7.56255014,-1.64432681e-01,-1,-0.7656868578305515
1.67366229e+03,1.74991378e+02,-4.62201242e-06,6.49803965,4.70803981,1.35561735,-2.84509923,1.75216950e+02,7.56455331,-1.58435313e-01,-1,-0.7616689171023827
1.69606854e+03,1.74991275e+02,-4.60613251e-06,6.49791411,4.70915646,1.35332129,-2.84509926,1.75346706e+02,7.56656742,-1.52404645e-01,-1,-0.7575184829384799
1.71934865e+03,1.74991170e+02,-4.58960448e-06,6.49778845,4.71027883,1.35101372,-2.84509930,1.75450048e+02,7.56859490,-1.46333291e-01,-1,-0.7532061788321072
1.74262877e+03,1.74991065e+02,-4.57307645e-06,6.49766278,4.71140119,1.34870616,-2.84509933,1.75553390e+02,7.57062239,-1.40261937e-01,-1,-0.7488938728733788
1.76590888e+03,1.74990960e+02,-4.55654842e-06,6.49753712,4.71252356,1.34639859,-2.84509936,1.75656732e+02,7.57264987,-1.34190583e-01,-1,-0.7445815687670061
1.78918900e+03,1.74990855e+02,-4.54002039e-06,6.49741145,4.71364593,1.34409103,-2.84509939,1.75760073e+02,7.57467735,-1.28119230e-01,-1,-0.7402692628082778
1.81246911e+03,1.74990749e+02,-4.52349236e-06,6.49728578,4.71476829,1.34178346,-2.84509943,1.75863415e+02,7.57670483,-1.22047876e-01,-1,-0.735956958701905
1.83700759e+03,1.74990641e+02,-4.50103079e-06,6.49715731,4.71590019,1.33945542,-2.84509944,1.75729910e+02,7.57875276,-1.15916080e-01,-1,-0.7314115597296431
1.86191081e+03,1.74990531e+02,-4.47684931e-06,6.49702802,4.71703486,1.33712145,-2.84509944,1.75527753e+02,7.58080661,-1.09766764e-01,-1,-0.7267985979408927
1.88681403e+03,1.74990421e+02,-4.45266784e-06,6.49689872,4.71816952,1.33478747,-2.84509944,1.75325595e+02,7.58286045,-1.03617449e-01,-1,-0.7221856361521424
1.91171726e+03,1.74990311e+02,-4.42848636e-06,6.49676943,4.71930419,1.33245350,-2.84509945,1.75123437e+02,7.58491430,-9.74681333e-02,-1,-0.7175726725110365
1.93683976e+03,1.74990201e+02,-4.40446247e-06,6.49663959,4.72043926,1.33011843,-2.84509945,1.74925026e+02,7.58696931,-9.13153516e-02,-1,-0.7129190922696911
1.96323975e+03,1.74990087e+02,-4.38135671e-06,6.49650650,4.72157672,1.32777697,-2.84509947,1.74748438e+02,7.58903112,-8.51423762e-02,-1,-0.7080288754586366
1.98963974e+03,1.74989973e+02,-4.35825094e-06,6.49637342,4.72271417,1.32543552,-2.84509948,1.74571850e+02,7.59109292,-7.89694008e-02,-1,-0.7031386586475818
2.01603973e+03,1.74989859e+02,-4.33514518e-06,6.49624034,4.72385163,1.32309407,-2.84509949,1.74395262e+02,7.59315473,-7.27964255e-02,-1,-0.6982484418365273
2.04243972e+03,1.74989746e+02,-4.31203942e-06,6.49610726,4.72498909,1.32075261,-2.84509951,1.74218674e+02,7.59521653,-6.66234501e-02,-1,-0.6933582250254727
2.07038447e+03,1.74989628e+02,-4.29249042e-06,6.49597117,4.72612046,1.31842182,-2.84509956,1.74166769e+02,7.59726958,-6.05068983e-02,-1,-0.6881818637378088
2.09841748e+03,1.74989509e+02,-4.27314465e-06,6.49583491,4.72725149,1.31609163,-2.84509961,1.74121989e+02,7.59932213,-5.43935706e-02,-1,-0.6829891535600222
2.12645049e+03,1.74989391e+02,-4.25379889e-06,6.49569865,4.72838252,1.31376144,-2.84509967,1.74077209e+02,7.60137467,-4.82802429e-02,-1,-0.6777964433822357
