star_age,star_mass,star_mdot,log_Teff,log_R,log_surf_z,surface_h1,surface_he3,log_center_T,log_center_Rho,phase,x
3.04847919e+02,4.79999969,-8.90695529e-10,3.63750212,1.83937990,-2.34509849,7.39732020e-01,4.24450722e-05,5.72198661,-3.84826223,-1,-1.0
3.19099827e+02,4.79999968,-8.80193814e-10,3.63773401,1.83731768,-2.34509849,7.39732020e-01,4.24450722e-05,5.72400146,-3.84222340,-1,-0.9999812623405501
3.33986644e+02,4.79999966,-8.69384521e-10,3.63808622,1.83518354,-2.34509849,7.39732020e-01,4.24450722e-05,5.72608370,-3.83598244,-1,-0.9999616899361226
3.49057211e+02,4.79999965,-8.59011612e-10,3.64056956,1.83280328,-2.34509849,7.39732020e-01,4.24450722e-05,5.72821238,-3.82960556,-1,-0.9999418759468545
3.64924629e+02,4.79999964,-8.64075215e-10,3.64238089,1.83037336,-2.34509849,7.39732020e-01,4.24450722e-05,5.73045318,-3.82289234,-1,-0.99992101429978
3.81844709e+02,4.79999962,-8.60349415e-10,3.64269489,1.82795818,-2.34509849,7.39732020e-01,4.24450722e-05,5.73281369,-3.81581718,-1,-0.9998987686680438
3.99640810e+02,4.79999961,-8.49017767e-10,3.64299337,1.82545984,-2.34509849,7.39732020e-01,4.24450722e-05,5.73525630,-3.80849536,-1,-0.9998753712899472
4.18247953e+02,4.79999959,-8.37597348e-10,3.64329824,1.82288721,-2.34509849,7.39732020e-01,4.24450722e-05,5.73777166,-3.80095515,-1,-0.9998509075964636
4.37698552e+02,4.79999958,-8.25394846e-10,3.64361294,1.82023860,-2.34509849,7.39732020e-01,4.24450722e-05,5.74036124,-3.79319217,-1,-0.9998253349713695
4.58036923e+02,4.79999956,-8.12699601e-10,3.64394348,1.81751167,-2.34509849,7.39732020e-01,4.24450722e-05,5.74302717,-3.78519950,-1,-0.9997985951503179
4.79296131e+02,4.79999954,-7.99604663e-10,3.64427554,1.81470586,-2.34509849,7.39732020e-01,4.24450722e-05,5.74577071,-3.77697384,-1,-0.9997706446611848
5.01511760e+02,4.79999952,-7.86167012e-10,3.64460587,1.81182095,-2.34509849,7.39732020e-01,4.24450722e-05,5.74859171,-3.76851505,-1,-0.9997414367199977
5.24807244e+02,4.79999951,-7.72777678e-10,3.64498945,1.80884769,-2.34509849,7.39732020e-01,4.24450722e-05,5.75149871,-3.75979912,-1,-0.9997108090422221
5.49215525e+02,4.79999949,-7.59258510e-10,3.64536831,1.80578813,-2.34509849,7.39732020e-01,4.24450722e-05,5.75449014,-3.75082906,-1,-0.9996787183174478
5.74702003e+02,4.79999947,-7.45781190e-10,3.64576761,1.80264674,-2.34509849,7.39732020e-01,4.24450722e-05,5.75756191,-3.74161949,-1,-0.9996452100359362
6.01290462e+02,4.79999945,-7.31971915e-10,3.64613698,1.79942727,-2.34509849,7.39732020e-01,4.24450722e-05,5.76071084,-3.73217804,-1,-0.9996102529277342
6.29253603e+02,4.79999943,-7.18048497e-10,3.64657185,1.79610966,-2.34509849,7.39732020e-01,4.24450722e-05,5.76395492,-3.72245226,-1,-0.9995734884599025
6.58415472e+02,4.79999941,-7.04068438e-10,3.64697354,1.79271304,-2.34509849,7.39732020e-01,4.24450722e-05,5.76727724,-3.71249306,-1,-0.9995351479675104
6.88916978e+02,4.79999939,-6.89928765e-10,3.64737752,1.78923088,-2.34509849,7.39732020e-01,4.24450722e-05,5.77068341,-3.70228168,-1,-0.9994950461908124
7.20870815e+02,4.79999937,-6.75876410e-10,3.64783557,1.78565742,-2.34509849,7.39732020e-01,4.24450722e-05,5.77417819,-3.69180526,-1,-0.9994530349656611
7.54222620e+02,4.79999934,-6.61818745e-10,3.64827505,1.78200173,-2.34509849,7.39732020e-01,4.24450722e-05,5.77775381,-3.68108357,-1,-0.9994091857656711
7.89180966e+02,4.79999932,-6.47642693e-10,3.64873197,1.77825452,-2.34509849,7.39732020e-01,4.24450722e-05,5.78141911,-3.67009282,-1,-0.9993632243700263
8.25692850e+02,4.79999930,-6.33287473e-10,3.64916913,1.77442455,-2.34509849,7.39732020e-01,4.24450722e-05,5.78516585,-3.65885586,-1,-0.999315220464285
8.63882071e+02,4.79999927,-6.19000290e-10,3.64965506,1.77050647,-2.34509849,7.39732020e-01,4.24450722e-05,5.78899862,-3.64736051,-1,-0.9992650112840296
9.03880091e+02,4.79999925,-6.04808985e-10,3.65016293,1.76649664,-2.34509849,7.39732020e-01,4.24450722e-05,5.79292107,-3.63559486,-1,-0.9992124239899332
9.45646759e+02,4.79999922,-5.90622720e-10,3.65065558,1.76240383,-2.34509849,7.39732020e-01,4.24450722e-05,5.79692607,-3.62358129,-1,-0.99915751137042
9.89309285e+02,4.79999920,-5.76395527e-10,3.65120221,1.75822296,-2.34509849,7.39732020e-01,4.24450722e-05,5.80101639,-3.61131236,-1,-0.9991001061764689
1.03506555e+03,4.79999917,-5.62584187e-10,3.65170701,1.75395341,-2.34509849,7.39732020e-01,4.24450722e-05,5.80519502,-3.59877901,-1,-0.9990399482445437
1.08288187e+03,4.79999915,-5.48548761e-10,3.65221291,1.74960060,-2.34509849,7.39732020e-01,4.24450722e-05,5.80945545,-3.58599909,-1,-0.9989770818605964
1.13286719e+03,4.79999912,-5.34496140e-10,3.65274552,1.74516314,-2.34509849,7.39732020e-01,4.24450722e-05,5.81379873,-3.57296963,-1,-0.9989113637894683
1.18513501e+03,4.79999909,-5.20555288e-10,3.65328623,1.74064162,-2.34509849,7.39732020e-01,4.24450722e-05,5.81822422,-3.55969458,-1,-0.9988426448073258
1.23979470e+03,4.79999906,-5.07222685e-10,3.65387212,1.73603434,-2.34509849,7.39732020e-01,4.24450722e-05,5.82273341,-3.54616839,-1,-0.9987707811202421
1.29694265e+03,4.79999904,-4.93593471e-10,3.65444174,1.73134513,-2.34509849,7.39732020e-01,4.24450722e-05,5.82732351,-3.53239863,-1,-0.9986956459997122
1.35669339e+03,4.79999901,-4.80147507e-10,3.65498241,1.72657717,-2.34509849,7.39732020e-01,4.24450722e-05,5.83199173,-3.51839499,-1,-0.9986170888677127
1.41918245e+03,4.79999898,-4.66780971e-10,3.65557704,1.72173013,-2.34509849,7.39732020e-01,4.24450722e-05,5.83673705,-3.50415903,-1,-0.9985349315365242
1.48452689e+03,4.79999895,-4.53624672e-10,3.65614043,1.71681912,-2.34509849,7.39732020e-01,4.24450722e-05,5.84154647,-3.48972849,-1,-0.998449020101812
1.55286663e+03,4.79999892,-4.40475602e-10,3.65675420,1.71180998,-2.34509849,7.39732020e-01,4.24450722e-05,5.84645184,-3.47501138,-1,-0.9983591706041155
1.62431801e+03,4.79999889,-4.27741382e-10,3.65734660,1.70672473,-2.34509849,7.39732020e-01,4.24450722e-05,5.85143283,-3.46006607,-1,-0.9982652300857185
1.69901265e+03,4.79999886,-4.15064211e-10,3.65796099,1.70156246,-2.34509849,7.39732020e-01,4.24450722e-05,5.85648974,-3.44489304,-1,-0.9981670254995639
1.77710126e+03,4.79999882,-4.02586457e-10,3.65857460,1.69632705,-2.34509849,7.39732020e-01,4.24450722e-05,5.86161890,-3.42950558,-1,-0.998064358700066
1.85874740e+03,4.79999879,-3.90456070e-10,3.65925295,1.69101512,-2.34509849,7.39732020e-01,4.24450722e-05,5.86682251,-3.41389216,-1,-0.997957014647135
1.94403805e+03,4.79999876,-3.78300251e-10,3.65987906,1.68563254,-2.34509849,7.39732020e-01,4.24450722e-05,5.87209680,-3.39806613,-1,-0.9978448789840392
2.03332291e+03,4.79999873,-3.66630842e-10,3.66048798,1.68018663,-2.34509849,7.39732020e-01,4.24450722e-05,5.87743357,-3.38204901,-1,-0.9977274919436012
2.12664959e+03,4.79999869,-3.55019286e-10,3.66114762,1.67467972,-2.34509849,7.39732020e-01,4.24450722e-05,5.88282994,-3.36585253,-1,-0.9976047909306961
2.22413209e+03,4.79999866,-3.43661355e-10,3.66180738,1.66909078,-2.34509849,7.39732020e-01,4.24450722e-05,5.88830710,-3.34941221,-1,-0.9974766260641164
2.32608506e+03,4.79999863,-3.32607789e-10,3.66248252,1.66343450,-2.34509849,7.39732020e-01,4.24450722e-05,5.89385057,-3.33277511,-1,-0.9973425836585824
2.43272425e+03,4.79999859,-3.21668296e-10,3.66314164,1.65771481,-2.34509849,7.39732020e-01,4.24450722e-05,5.89945731,-3.31594719,-1,-0.9972023800573359
2.54410900e+03,4.79999856,-3.10922795e-10,3.66382630,1.65193255,-2.34509849,7.39732020e-01,4.24450722e-05,5.90512581,-3.29893349,-1,-0.997055937243264
2.66059216e+03,4.79999852,-3.00533730e-10,3.66448744,1.64608928,-2.34509849,7.39732020e-01,4.24450722e-05,5.91085520,-3.28173581,-1,-0.9969027913077352
2.78241616e+03,4.79999848,-2.90302020e-10,3.66518158,1.64021681,-2.34509849,7.39732020e-01,4.24450722e-05,5.91655020,-3.26456994,-1,-0.9967426235165295
2.90967943e+03,4.79999845,-2.80558245e-10,3.66588087,1.63427802,-2.34509849,7.39732020e-01,4.24450722e-05,5.92233962,-3.24715579,-1,-0.9965753044590572
3.04283086e+03,4.79999841,-2.70818115e-10,3.66658978,1.62827160,-2.34509849,7.39732020e-01,4.24450722e-05,5.92822708,-3.22948359,-1,-0.9964002439583431
3.18185080e+03,4.79999838,-2.61404213e-10,3.66728785,1.62219576,-2.34509849,7.39732020e-01,4.24450722e-05,5.93418826,-3.21159310,-1,-0.9962174678491746
3.32732472e+03,4.79999834,-2.52254413e-10,3.66802071,1.61607344,-2.34509849,7.39732020e-01,4.24450722e-05,5.94019266,-3.19357097,-1,-0.9960262063863723
3.47927141e+03,4.79999830,-2.43338898e-10,3.66870152,1.60990603,-2.34509849,7.39732020e-01,4.24450723e-05,5.94624559,-3.17540486,-1,-0.9958264348658319
3.63811714e+03,4.79999826,-2.34566372e-10,3.66941917,1.60368628,-2.34509849,7.39732020e-01,4.24450724e-05,5.95234964,-3.15708513,-1,-0.9956175928501655
3.80420585e+03,4.79999823,-2.26061258e-10,3.67011137,1.59741778,-2.34509849,7.39732020e-01,4.24450726e-05,5.95850340,-3.13861917,-1,-0.995399228145141
3.97774875e+03,4.79999819,-2.17892363e-10,3.67086348,1.59109670,-2.34509849,7.39732020e-01,4.24450730e-05,5.96470874,-3.11999581,-1,-0.9951710630629533
4.15924869e+03,4.79999815,-2.10016838e-10,3.67162440,1.58471530,-2.34509849,7.39732020e-01,4.24450736e-05,5.97097524,-3.10119009,-1,-0.9949324364828561
4.34900383e+03,4.79999811,-2.02296688e-10,3.67239552,1.57830157,-2.34509849,7.39732020e-01,4.24450746e-05,5.97727381,-3.08228791,-1,-0.9946829563997549
4.54712259e+03,4.79999807,-1.94788162e-10,3.67309775,1.57184989,-2.34509849,7.39732020e-01,4.24450759e-05,5.98361133,-3.06327019,-1,-0.994422480268733
4.75424518e+03,4.79999803,-1.87477564e-10,3.67379903,1.56535791,-2.34509849,7.39732020e-01,4.24450774e-05,5.98998967,-3.04413116,-1,-0.9941501663753368
4.97097740e+03,4.79999799,-1.80449685e-10,3.67459627,1.55881505,-2.34509849,7.39732020e-01,4.24450798e-05,5.99641783,-3.02484285,-1,-0.9938652182455717
5.19725343e+03,4.79999795,-1.73627927e-10,3.67530309,1.55223752,-2.34509849,7.39732020e-01,4.24450825e-05,6.00288247,-3.00544202,-1,-0.9935677224161138
5.43375644e+03,4.79999791,-1.67001146e-10,3.67605232,1.54562969,-2.34509849,7.39732020e-01,4.24450859e-05,6.00937780,-2.98595098,-1,-0.9932567806909595
5.68117943e+03,4.79999787,-1.60633019e-10,3.67683392,1.53897983,-2.34509849,7.39732020e-01,4.24450948e-05,6.01591536,-2.96633498,-1,-0.9929314819501383
5.93971981e+03,4.79999783,-1.54417275e-10,3.67758089,1.53229745,-2.34509994,7.39732119e-01,4.24454181e-05,6.02242914,-2.94655451,-1,-0.9925915666493594
6.20985023e+03,4.79999779,-1.48455126e-10,3.67832479,1.52557615,-2.34510059,7.39732164e-01,4.24457015e-05,6.02890805,-2.92656237,-1,-0.9922364133732491
6.49208840e+03,4.79999775,-1.42674617e-10,3.67903987,1.51883767,-2.34510071,7.39732173e-01,4.24459196e-05,6.03536213,-2.90645378,-1,-0.991865341463914
6.78725446e+03,4.79999771,-1.37132731e-10,3.67985348,1.51206234,-2.34510177,7.39732245e-01,4.24461067e-05,6.04179600,-2.88614494,-1,-0.9914772726443951
7.09563503e+03,4.79999767,-1.31743449e-10,3.68060933,1.50526220,-2.34510114,7.39732203e-01,4.24464847e-05,6.04819914,-2.86566531,-1,-0.991071830081783
7.41791590e+03,4.79999763,-1.26561375e-10,3.68132920,1.49842955,-2.34510111,7.39732202e-01,4.24468858e-05,6.05455996,-2.84493644,-1,-0.9906481121354364
7.75502610e+03,4.79999758,-1.21467062e-10,3.68212806,1.49158201,-2.34510165,7.39732236e-01,4.24473411e-05,6.06091405,-2.82410267,-1,-0.9902048973655477
8.10709000e+03,4.79999754,-1.16633761e-10,3.68288146,1.48471267,-2.34510290,7.39732321e-01,4.24478469e-05,6.06725178,-2.80309702,-1,-0.9897420222569792
8.47504279e+03,4.79999750,-1.11966367e-10,3.68362847,1.47782564,-2.34510238,7.39732286e-01,4.24485917e-05,6.07357180,-2.78192689,-1,-0.9892582572710793
8.85962564e+03,4.79999746,-1.07604901e-10,3.68435654,1.47092838,-2.34510258,7.39732301e-01,4.24493833e-05,6.07986825,-2.76060782,-1,-0.9887526279564937
9.26181145e+03,4.79999742,-1.03335485e-10,3.68511788,1.46400513,-2.34510333,7.39732354e-01,4.24502415e-05,6.08615146,-2.73904578,-1,-0.9882238551954452
9.68211468e+03,4.79999738,-9.91680305e-11,3.68586709,1.45708346,-2.34510303,7.39732336e-01,4.24513939e-05,6.09242943,-2.71742003,-1,-0.9876712626029699
1.01213220e+04,4.79999733,-9.51599555e-11,3.68660841,1.45015242,-2.34510352,7.39732366e-01,4.24526677e-05,6.09870463,-2.69565270,-1,-0.9870938159067051
1.05807777e+04,4.79999729,-9.13700169e-11,3.68744235,1.44320614,-2.34510380,7.39732390e-01,4.24541297e-05,6.10498466,-2.67372966,-1,-0.9864897477048248
1.10606197e+04,4.79999725,-8.77263616e-11,3.68818279,1.43626156,-2.34510392,7.39732401e-01,4.24558460e-05,6.11126516,-2.65169831,-1,-0.9858588766673633
1.15623854e+04,4.79999720,-8.41988404e-11,3.68898863,1.42930391,-2.34510700,7.39732603e-01,4.24575144e-05,6.11755240,-2.62948048,-1,-0.9851991815016178
1.20866306e+04,4.79999716,-8.08316801e-11,3.68972527,1.42235603,-2.34510613,7.39732545e-01,4.24599676e-05,6.12384630,-2.60719176,-1,-0.9845099314709655
1.26346587e+04,4.79999712,-7.75785524e-11,3.69046882,1.41541994,-2.34510631,7.39732562e-01,4.24625507e-05,6.13015315,-2.58487062,-1,-0.9837894129336031
1.32075945e+04,4.79999708,-7.44594172e-11,3.69122405,1.40849307,-2.34510724,7.39732615e-01,4.24654373e-05,6.13647811,-2.56249047,-1,-0.9830361470616185
1.38065417e+04,4.79999703,-7.14605850e-11,3.69197149,1.40158096,-2.34510783,7.39732665e-01,4.24688159e-05,6.14282239,-2.54007825,-1,-0.9822486827682705
1.44328121e+04,4.79999699,-6.86181531e-11,3.69273668,1.39468601,-2.34511070,7.39732843e-01,4.24724478e-05,6.14919463,-2.51765556,-1,-0.9814252953678773
1.50872561e+04,4.79999694,-6.58841175e-11,3.69345257,1.38781903,-2.34511240,7.39732964e-01,4.24767308e-05,6.15562071,-2.49521140,-1,-0.9805648667992225
1.57720641e+04,4.79999690,-6.32846898e-11,3.69421358,1.38097889,-2.34511231,7.39732959e-01,4.24817388e-05,6.16204254,-2.47287874,-1,-0.97966451723953
1.64881561e+04,4.79999686,-6.07725075e-11,3.69496454,1.37417700,-2.34511344,7.39733020e-01,4.24871773e-05,6.16849509,-2.45065112,-1,-0.978723037121162
1.72369111e+04,4.79999681,-5.84091739e-11,3.69569649,1.36741869,-2.34511578,7.39733199e-01,4.24933020e-05,6.17496656,-2.42858445,-1,-0.9777386134074093
1.80199622e+04,4.79999677,-5.61339132e-11,3.69641040,1.36071987,-2.34511567,7.39733198e-01,4.25005227e-05,6.18144345,-2.40676471,-1,-0.97670909898424
1.88389401e+04,4.79999672,-5.39686399e-11,3.69712098,1.35408423,-2.34511522,7.39733159e-01,4.25086538e-05,6.18794531,-2.38507526,-1,-0.9756323498930161
1.96956161e+04,4.79999668,-5.19081876e-11,3.69784651,1.34750495,-2.34511591,7.39733228e-01,4.25177495e-05,6.19435970,-2.36359310,-1,-0.9745060373216105
2.05917875e+04,4.79999663,-4.99719516e-11,3.69857688,1.34100725,-2.34511728,7.39733335e-01,4.25277449e-05,6.20068303,-2.34239054,-1,-0.9733277982744629
2.15288052e+04,4.79999659,-4.81097511e-11,3.69925326,1.33459605,-2.34512110,7.39733529e-01,4.25389180e-05,6.20685477,-2.32132358,-1,-0.972095856659267
2.25101391e+04,4.79999654,-4.63388801e-11,3.69993449,1.32828276,-2.34512426,7.39733757e-01,4.25516623e-05,6.21281262,-2.30038790,-1,-0.9708056504339071
2.35360558e+04,4.79999649,-4.46586548e-11,3.70059028,1.32205103,-2.34512578,7.39733825e-01,4.25661513e-05,6.21851551,-2.27930171,-1,-0.9694568290867175
2.46086404e+04,4.79999645,-4.30567536e-11,3.70125104,1.31590095,-2.34513545,7.39734314e-01,4.25821674e-05,6.22394488,-2.25795886,-1,-0.9680466512378271
2.57312332e+04,4.79999640,-4.15361361e-11,3.70192094,1.30982798,-2.34513744,7.39734283e-01,4.26009483e-05,6.22911042,-2.23623467,-1,-0.9665707252363873
2.69056050e+04,4.79999635,-4.00905456e-11,3.70258026,1.30384381,-2.34514234,7.39734599e-01,4.26211828e-05,6.23398888,-2.21430193,-1,-0.9650267229276449
2.81325788e+04,4.79999631,-3.87231881e-11,3.70325874,1.29790840,-2.34515305,7.39734464e-01,4.26461756e-05,6.23881757,-2.19170367,-1,-0.963413562274463
2.94173133e+04,4.79999626,-3.74155752e-11,3.70394823,1.29205043,-2.34515333,7.39734209e-01,4.26733464e-05,6.24362322,-2.16871377,-1,-0.9617244608892619
3.07597277e+04,4.79999621,-3.61624383e-11,3.70459088,1.28625236,-2.34515551,7.39734107e-01,4.27029460e-05,6.24848771,-2.14528713,-1,-0.9599595250036344
3.21627152e+04,4.79999616,-3.49570561e-11,3.70522844,1.28051041,-2.34515796,7.39733980e-01,4.27356170e-05,6.25347723,-2.12143546,-1,-0.9581149507903087
3.36313005e+04,4.79999611,-3.38044552e-11,3.70586887,1.27482397,-2.34516033,7.39733843e-01,4.27712001e-05,6.25864107,-2.09715729,-1,-0.9561841320378616
3.51654058e+04,4.79999606,-3.27008478e-11,3.70652982,1.26917846,-2.34516289,7.39733701e-01,4.28092581e-05,6.26399989,-2.07237953,-1,-0.9541671710336429
3.67708624e+04,4.79999601,-3.16503177e-11,3.70720095,1.26359078,-2.34516545,7.39733563e-01,4.28493984e-05,6.26955573,-2.04723638,-1,-0.9520564010909504
3.84501536e+04,4.79999595,-3.06449737e-11,3.70791580,1.25805886,-2.34519585,7.39736149e-01,4.28841381e-05,6.27531409,-2.02176274,-1,-0.949848557297485
4.02050698e+04,4.79999590,-2.96975365e-11,3.70862880,1.25258402,-2.34519450,7.39733806e-01,4.29330173e-05,6.28129343,-1.99586538,-1,-0.9475412857294436
4.20407115e+04,4.79999585,-2.87910661e-11,3.70932110,1.24716907,-2.34519924,7.39733525e-01,4.29760354e-05,6.28746985,-1.96952919,-1,-0.9451278805175475
4.39608473e+04,4.79999579,-2.79186718e-11,3.71001971,1.24181744,-2.34520224,7.39733257e-01,4.30186145e-05,6.29379763,-1.94285782,-1,-0.9426033869046228
4.59684155e+04,4.79999574,-2.70881955e-11,3.71078170,1.23652763,-2.34521006,7.39734946e-01,4.30562777e-05,6.30028895,-1.91585069,-1,-0.9399639417682887
4.80672417e+04,4.79999568,-2.63096493e-11,3.71153626,1.23130199,-2.34521123,7.39733140e-01,4.30995857e-05,6.30696723,-1.88846088,-1,-0.9372045154107679
5.02639940e+04,4.79999563,-2.55602015e-11,3.71228118,1.22615271,-2.34521049,7.39732924e-01,4.31376568e-05,6.31383735,-1.86068047,-1,-0.9343163409647064
5.25608768e+04,4.79999557,-2.48512289e-11,3.71308403,1.22107672,-2.34525574,7.39733130e-01,4.31733017e-05,6.32090052,-1.83248179,-1,-0.9312965202008642
5.49624210e+04,4.79999551,-2.41816964e-11,3.71390068,1.21608601,-2.34523935,7.39732908e-01,4.32064129e-05,6.32815576,-1.80386536,-1,-0.9281390961300997
5.74731123e+04,4.79999545,-2.35453343e-11,3.71470265,1.21119110,-2.34520869,7.39732535e-01,4.32368178e-05,6.33560848,-1.77481932,-1,-0.9248381711898555
6.00999222e+04,4.79999539,-2.29433298e-11,3.71552555,1.20640676,-2.34517356,7.39732238e-01,4.32640571e-05,6.34326106,-1.74532564,-1,-0.9213845796184065
6.28480697e+04,4.79999533,-2.23806088e-11,3.71636725,1.20174784,-2.34514637,7.39732036e-01,4.32880745e-05,6.35111599,-1.71536228,-1,-0.9177714597489028
6.57221060e+04,4.79999526,-2.18665215e-11,3.71734160,1.19721737,-2.34522308,7.39734154e-01,4.33077028e-05,6.35918546,-1.68490845,-1,-0.9139928279028303
6.87274593e+04,4.79999520,-2.13892553e-11,3.71824369,1.19284129,-2.34514136,7.39731979e-01,4.33265870e-05,6.36747453,-1.65394753,-1,-0.9100415473681762
7.18705457e+04,4.79999513,-2.09452509e-11,3.71917514,1.18865203,-2.34512445,7.39731869e-01,4.33414013e-05,6.37598184,-1.62246371,-1,-0.9059091825939396
7.51576432e+04,4.79999507,-2.05470159e-11,3.72015339,1.18467744,-2.34511336,7.39731795e-01,4.33534234e-05,6.38471684,-1.59042786,-1,-0.9015874795957396
7.85952219e+04,4.79999500,-2.01986248e-11,3.72116803,1.18095136,-2.34510781,7.39731766e-01,4.33628662e-05,6.39368468,-1.55780807,-1,-0.897067931826214
8.21892811e+04,4.79999492,-1.99003880e-11,3.72226311,1.17751235,-2.34538949,7.39738218e-01,4.33688982e-05,6.40289375,-1.52456791,-1,-0.8923426517210915
8.59473676e+04,4.79999485,-1.96620584e-11,3.72335324,1.17441519,-2.34510451,7.39731743e-01,4.33752858e-05,6.41234990,-1.49065800,-1,-0.8874017171444492
8.98743125e+04,4.79999477,-1.94832242e-11,3.72452504,1.17171878,-2.34510148,7.39731727e-01,4.33789355e-05,6.42206819,-1.45605168,-1,-0.8822387764199662
9.39767112e+04,4.79999469,-1.93785932e-11,3.72574673,1.16949247,-2.34509998,7.39731719e-01,4.33813560e-05,6.43206188,-1.42070529,-1,-0.876845158262427
9.82584844e+04,4.79999461,-1.93559260e-11,3.72704552,1.16781687,-2.34509924,7.39731716e-01,4.33828893e-05,6.44233499,-1.38458559,-1,-0.8712157079415734
1.02721612e+05,4.79999452,-1.94326651e-11,3.72844154,1.16676836,-2.34509886,7.39731715e-01,4.33837837e-05,6.45290606,-1.34767080,-1,-0.865347822388964
