star_age,star_mass,star_mdot,log_Teff,log_R,log_surf_z,surface_h1,surface_he3,log_center_T,log_center_Rho,phase,x
2.25142997e+02,7.19999954,-1.79558307e-09,3.63598185,2.00163711,-2.34509848,7.39732019e-01,4.24450722e-05,5.72278324,-4.16025744,-1,-1.0
2.35082282e+02,7.19999952,-1.77572984e-09,3.63621008,1.99969160,-2.34509848,7.39732019e-01,4.24450722e-05,5.72470468,-4.15449406,-1,-0.9999682374181307
2.45425290e+02,7.19999950,-1.75519669e-09,3.63644364,1.99768882,-2.34509848,7.39732019e-01,4.24450722e-05,5.72668266,-4.14856015,-1,-0.9999351846745607
2.56204086e+02,7.19999948,-1.73438744e-09,3.63668106,1.99562567,-2.34509848,7.39732019e-01,4.24450722e-05,5.72872034,-4.14244733,-1,-0.9999007393004314
2.67441217e+02,7.19999946,-1.71325269e-09,3.63697044,1.99349792,-2.34509848,7.39732019e-01,4.24450722e-05,5.73082046,-4.13614742,-1,-0.9998648292431824
2.79160394e+02,7.19999944,-1.69184187e-09,3.63730983,1.99130310,-2.34509848,7.39732019e-01,4.24450722e-05,5.73298555,-4.12965191,-1,-0.9998273787305044
2.91276762e+02,7.19999942,-1.67069516e-09,3.63822262,1.98899176,-2.34509848,7.39732019e-01,4.24450722e-05,5.73520908,-4.12298158,-1,-0.999788658930181
3.03499274e+02,7.19999940,-1.65587374e-09,3.64131407,1.98643650,-2.34509848,7.39732019e-01,4.24450722e-05,5.73747517,-4.11619100,-1,-0.9997495999296544
3.16823330e+02,7.19999938,-1.67086125e-09,3.64173097,1.98397699,-2.34509848,7.39732019e-01,4.24450722e-05,5.73990215,-4.10891276,-1,-0.9997070207683233
3.30719274e+02,7.19999936,-1.64750931e-09,3.64204428,1.98143538,-2.34509848,7.39732019e-01,4.24450722e-05,5.74241381,-4.10137628,-1,-0.9996626140470198
3.45202219e+02,7.19999933,-1.62519676e-09,3.64236333,1.97882594,-2.34509848,7.39732019e-01,4.24450722e-05,5.74499252,-4.09364013,-1,-0.9996163314697246
3.60302947e+02,7.19999931,-1.60142602e-09,3.64269041,1.97614640,-2.34509848,7.39732019e-01,4.24450722e-05,5.74764049,-4.08569545,-1,-0.9995680746676121
3.76120012e+02,7.19999929,-1.57660305e-09,3.64302341,1.97338784,-2.34509848,7.39732019e-01,4.24450722e-05,5.75036646,-4.07751747,-1,-0.9995175286955432
3.92618772e+02,7.19999926,-1.55125072e-09,3.64337397,1.97055600,-2.34509848,7.39732019e-01,4.24450722e-05,5.75316446,-4.06912277,-1,-0.999464804257594
4.09822737e+02,7.19999923,-1.52553760e-09,3.64375346,1.96764926,-2.34509848,7.39732019e-01,4.24450722e-05,5.75603574,-4.06050913,-1,-0.9994098262237828
4.27753691e+02,7.19999921,-1.49962531e-09,3.64412417,1.96466959,-2.34509848,7.39732019e-01,4.24450722e-05,5.75897931,-4.05167782,-1,-0.9993525249798383
4.46429295e+02,7.19999918,-1.47331186e-09,3.64448529,1.96161781,-2.34509848,7.39732019e-01,4.24450722e-05,5.76199453,-4.04263038,-1,-0.9992928440871978
4.66003195e+02,7.19999915,-1.44658312e-09,3.64486996,1.95848118,-2.34509848,7.39732019e-01,4.24450722e-05,5.76509300,-4.03333529,-1,-0.9992302925453865
4.86401470e+02,7.19999912,-1.42038796e-09,3.64530057,1.95526795,-2.34509848,7.39732019e-01,4.24450722e-05,5.76826613,-4.02381562,-1,-0.9991651065808348
5.07618144e+02,7.19999909,-1.39342675e-09,3.64569381,1.95198414,-2.34509848,7.39732019e-01,4.24450722e-05,5.77151006,-4.01408393,-1,-0.9990973052908105
5.29855906e+02,7.19999906,-1.36656688e-09,3.64608633,1.94861560,-2.34509848,7.39732019e-01,4.24450722e-05,5.77483760,-4.00409956,-1,-0.9990262409500542
5.52992516e+02,7.19999903,-1.33981767e-09,3.64648162,1.94517587,-2.34509848,7.39732019e-01,4.24450722e-05,5.77823559,-3.99390419,-1,-0.9989523041961225
5.77159035e+02,7.19999900,-1.31284289e-09,3.64701110,1.94165001,-2.34509848,7.39732019e-01,4.24450722e-05,5.78171545,-3.98346198,-1,-0.998875076202536
6.02366044e+02,7.19999897,-1.28601428e-09,3.64743806,1.93804917,-2.34509848,7.39732019e-01,4.24450722e-05,5.78527231,-3.97278874,-1,-0.9987945231560098
6.28665529e+02,7.19999893,-1.25925164e-09,3.64787637,1.93437096,-2.34509848,7.39732019e-01,4.24450722e-05,5.78890531,-3.96188623,-1,-0.9987104789269298
6.56093500e+02,7.19999890,-1.23244979e-09,3.64833596,1.93061546,-2.34509848,7.39732019e-01,4.24450722e-05,5.79261434,-3.95075454,-1,-0.9986228284395561
6.84735893e+02,7.19999886,-1.20537876e-09,3.64884290,1.92677820,-2.34509848,7.39732019e-01,4.24450722e-05,5.79640333,-3.93938382,-1,-0.998531297071596
7.14538333e+02,7.19999883,-1.17799914e-09,3.64929615,1.92286985,-2.34509848,7.39732019e-01,4.24450722e-05,5.80026386,-3.92779789,-1,-0.9984360585870969
7.45744752e+02,7.19999879,-1.15149792e-09,3.64983702,1.91887289,-2.34509848,7.39732019e-01,4.24450722e-05,5.80421009,-3.91595475,-1,-0.9983363334621674
7.78252443e+02,7.19999876,-1.12515819e-09,3.65033505,1.91482283,-2.34509848,7.39732019e-01,4.24450722e-05,5.80820981,-3.90395120,-1,-0.998232449913525
8.12121131e+02,7.19999872,-1.09854886e-09,3.65086311,1.91067832,-2.34509848,7.39732019e-01,4.24450722e-05,5.81230198,-3.89166851,-1,-0.9981242170803377
8.47492942e+02,7.19999868,-1.07231567e-09,3.65137493,1.90645660,-2.34509848,7.39732019e-01,4.24450722e-05,5.81647072,-3.87915714,-1,-0.9980111807761416
8.84399560e+02,7.19999864,-1.04587479e-09,3.65187428,1.90216055,-2.34509848,7.39732019e-01,4.24450722e-05,5.82071296,-3.86642475,-1,-0.9978932397496247
9.22878559e+02,7.19999860,-1.01972024e-09,3.65239560,1.89779115,-2.34509848,7.39732019e-01,4.24450722e-05,5.82502746,-3.85347440,-1,-0.9977702739270343
9.63003295e+02,7.19999856,-9.93806387e-10,3.65296440,1.89334595,-2.34509848,7.39732019e-01,4.24450722e-05,5.82941583,-3.84030212,-1,-0.9976420488874883
1.00485982e+03,7.19999852,-9.68676474e-10,3.65356350,1.88882383,-2.34509848,7.39732019e-01,4.24450722e-05,5.83387992,-3.82690339,-1,-0.9975082896379974
1.04849527e+03,7.19999848,-9.43288927e-10,3.65409197,1.88423468,-2.34509848,7.39732019e-01,4.24450722e-05,5.83841156,-3.81329864,-1,-0.9973688455479016
1.09406529e+03,7.19999844,-9.18266293e-10,3.65469369,1.87956913,-2.34509848,7.39732019e-01,4.24450722e-05,5.84301772,-3.79947043,-1,-0.9972232192286005
1.14156985e+03,7.19999839,-8.93307504e-10,3.65524576,1.87483599,-2.34509848,7.39732019e-01,4.24450722e-05,5.84769192,-3.78543920,-1,-0.9970714107759638
1.19113177e+03,7.19999835,-8.68703638e-10,3.65585779,1.87003105,-2.34509848,7.39732019e-01,4.24450722e-05,5.85243590,-3.77119787,-1,-0.9969130276989518
1.24280129e+03,7.19999831,-8.44693716e-10,3.65645036,1.86515778,-2.34509848,7.39732019e-01,4.24450722e-05,5.85724797,-3.75675255,-1,-0.996747909447574
1.29666617e+03,7.19999826,-8.20592606e-10,3.65701847,1.86021961,-2.34509848,7.39732019e-01,4.24450722e-05,5.86212475,-3.74211457,-1,-0.9965757755706524
1.35285723e+03,7.19999822,-7.97279550e-10,3.65761987,1.85521476,-2.34509848,7.39732019e-01,4.24450722e-05,5.86706668,-3.72727938,-1,-0.9963962080118619
1.41150094e+03,7.19999817,-7.74086205e-10,3.65824331,1.85014400,-2.34509853,7.39732023e-01,4.24450721e-05,5.87204152,-3.71221141,-1,-0.9962088026160016
1.47265579e+03,7.19999813,-7.51318413e-10,3.65884471,1.84501473,-2.34509858,7.39732026e-01,4.24450720e-05,5.87703528,-3.69691676,-1,-0.9960133724688804
1.53644461e+03,7.19999808,-7.29583073e-10,3.65950167,1.83982959,-2.34509866,7.39732032e-01,4.24450716e-05,5.88204944,-3.68140744,-1,-0.9958095250475021
1.60293769e+03,7.19999803,-7.07561194e-10,3.66013933,1.83457201,-2.34509868,7.39732033e-01,4.24450716e-05,5.88707649,-3.66559453,-1,-0.9955970357288799
1.67225374e+03,7.19999798,-6.86055273e-10,3.66078423,1.82925422,-2.34509868,7.39732033e-01,4.24450717e-05,5.89212467,-3.64953330,-1,-0.9953755251561395
1.74447646e+03,7.19999794,-6.64486387e-10,3.66139515,1.82388256,-2.34509867,7.39732032e-01,4.24450719e-05,5.89718988,-3.63323652,-1,-0.9951447258524851
1.81992108e+03,7.19999789,-6.43425599e-10,3.66203010,1.81845261,-2.34509865,7.39732031e-01,4.24450723e-05,5.90227517,-3.61668621,-1,-0.9949036304498131
1.89850270e+03,7.19999784,-6.23055261e-10,3.66269649,1.81296766,-2.34509865,7.39732031e-01,4.24450725e-05,5.90738283,-3.59989292,-1,-0.9946525102597118
1.98052107e+03,7.19999779,-6.03375738e-10,3.66334968,1.80743071,-2.34509864,7.39732030e-01,4.24450729e-05,5.91250939,-3.58285508,-1,-0.9943904073829042
2.06596992e+03,7.19999774,-5.84413582e-10,3.66406255,1.80184140,-2.34509865,7.39732031e-01,4.24450730e-05,5.91765763,-3.56557506,-1,-0.9941173418561826
2.15515989e+03,7.19999769,-5.65326525e-10,3.66471601,1.79620701,-2.34509863,7.39732030e-01,4.24450735e-05,5.92282312,-3.54805689,-1,-0.9938323209795256
2.24812341e+03,7.19999763,-5.47130356e-10,3.66542448,1.79052427,-2.34509871,7.39732035e-01,4.24450734e-05,5.92800974,-3.53029855,-1,-0.9935352411176586
2.34505166e+03,7.19999758,-5.29443843e-10,3.66609940,1.78481963,-2.34509870,7.39732035e-01,4.24450740e-05,5.93309227,-3.51260972,-1,-0.9932254913241803
2.44616718e+03,7.19999753,-5.12502820e-10,3.66675490,1.77907628,-2.34509871,7.39732036e-01,4.24450745e-05,5.93827654,-3.49451780,-1,-0.9929023604367718
2.55162381e+03,7.19999748,-4.95723783e-10,3.66751874,1.77328577,-2.34509894,7.39732051e-01,4.24450735e-05,5.94351971,-3.47615616,-1,-0.9925653568350002
2.66150237e+03,7.19999742,-4.79357296e-10,3.66819685,1.76746417,-2.34509901,7.39732056e-01,4.24450738e-05,5.94878870,-3.45759600,-1,-0.9922142222455727
2.77615612e+03,7.19999737,-4.63303306e-10,3.66889204,1.76160992,-2.34509902,7.39732056e-01,4.24450746e-05,5.95408036,-3.43881587,-1,-0.991847827769411
2.89555395e+03,7.19999732,-4.47589735e-10,3.66957376,1.75571367,-2.34509899,7.39732054e-01,4.24450758e-05,5.95939044,-3.41971525,-1,-0.9914662728235181
3.02025569e+03,7.19999726,-4.32505952e-10,3.67028278,1.74979507,-2.34509897,7.39732053e-01,4.24450770e-05,5.96472057,-3.40046223,-1,-0.9910677683811973
3.15009865e+03,7.19999721,-4.17754228e-10,3.67099842,1.74384865,-2.34509898,7.39732054e-01,4.24450781e-05,5.97007249,-3.38098327,-1,-0.9906528343444783
3.28568433e+03,7.19999715,-4.03573955e-10,3.67171111,1.73787038,-2.34509906,7.39732059e-01,4.24450789e-05,5.97545397,-3.36122212,-1,-0.9902195485234859
3.42680900e+03,7.19999710,-3.89651760e-10,3.67239377,1.73187414,-2.34509902,7.39732056e-01,4.24450807e-05,5.98085517,-3.34124725,-1,-0.9897685619701623
3.57428904e+03,7.19999704,-3.76359710e-10,3.67317479,1.72584917,-2.34509922,7.39732070e-01,4.24450808e-05,5.98629030,-3.32102907,-1,-0.9892972658110738
3.72778506e+03,7.19999698,-3.63330231e-10,3.67388220,1.71981299,-2.34509912,7.39732064e-01,4.24450834e-05,5.99174694,-3.30060695,-1,-0.9888067446214853
3.88801683e+03,7.19999693,-3.50818055e-10,3.67458574,1.71376081,-2.34509912,7.39732064e-01,4.24450854e-05,5.99722528,-3.27992225,-1,-0.9882946982607375
4.05495231e+03,7.19999687,-3.38590353e-10,3.67531511,1.70769594,-2.34509912,7.39732064e-01,4.24450877e-05,6.00272907,-3.25901333,-1,-0.9877612291177973
4.22919447e+03,7.19999681,-3.26832075e-10,3.67607791,1.70161938,-2.34509939,7.39732082e-01,4.24450883e-05,6.00826394,-3.23789555,-1,-0.9872044103051683
4.41080769e+03,7.19999675,-3.15410393e-10,3.67679246,1.69553995,-2.34509939,7.39732082e-01,4.24450911e-05,6.01382418,-3.21657329,-1,-0.9866240360862184
4.60006885e+03,7.19999670,-3.04570457e-10,3.67752229,1.68945663,-2.34509938,7.39732082e-01,4.24450942e-05,6.01941359,-3.19502839,-1,-0.9860192216464296
4.79759971e+03,7.19999664,-2.93985876e-10,3.67823355,1.68337277,-2.34509938,7.39732082e-01,4.24450974e-05,6.02503257,-3.17323642,-1,-0.9853879800518421
5.00356338e+03,7.19999658,-2.83722388e-10,3.67900592,1.67728559,-2.34509961,7.39732097e-01,4.24450995e-05,6.03068635,-3.15120627,-1,-0.9847297900582487
5.21815466e+03,7.19999652,-2.73971408e-10,3.67972807,1.67120516,-2.34509975,7.39732107e-01,4.24451024e-05,6.03637178,-3.12896611,-1,-0.9840440291509566
5.44220224e+03,7.19999646,-2.64395696e-10,3.68047102,1.66513251,-2.34509970,7.39732104e-01,4.24451071e-05,6.04209637,-3.10652222,-1,-0.9833280491179496
5.67571891e+03,7.19999640,-2.55142538e-10,3.68120139,1.65907103,-2.34509967,7.39732103e-01,4.24451119e-05,6.04785654,-3.08385152,-1,-0.9825818090867283
5.91919070e+03,7.19999634,-2.46309248e-10,3.68192023,1.65302562,-2.34509976,7.39732109e-01,4.24451163e-05,6.05365532,-3.06096177,-1,-0.9818037558703514
6.17308497e+03,7.19999628,-2.37867738e-10,3.68266096,1.64698960,-2.34510032,7.39732146e-01,4.24451178e-05,6.05949371,-3.03776629,-1,-0.980992395944862
6.43792118e+03,7.19999622,-2.29641201e-10,3.68342065,1.64097763,-2.34510016,7.39732136e-01,4.24451248e-05,6.06537830,-3.01441074,-1,-0.9801460692923839
6.71413800e+03,7.19999615,-2.21742458e-10,3.68414032,1.63500073,-2.34510012,7.39732134e-01,4.24451311e-05,6.07130643,-2.99091912,-1,-0.9792633740724638
7.00232736e+03,7.19999609,-2.14274663e-10,3.68492088,1.62904063,-2.34510116,7.39732203e-01,4.24451305e-05,6.07728728,-2.96710314,-1,-0.9783424186776988
7.30282131e+03,7.19999603,-2.07059504e-10,3.68567067,1.62311282,-2.34510092,7.39732187e-01,4.24451392e-05,6.08332189,-2.94304945,-1,-0.9773821419889731
7.61614694e+03,7.19999596,-2.00141786e-10,3.68639612,1.61722560,-2.34510088,7.39732185e-01,4.24451467e-05,6.08940837,-2.91877078,-1,-0.97638085960552
7.94295818e+03,7.19999590,-1.93479445e-10,3.68713923,1.61137873,-2.34510089,7.39732186e-01,4.24451541e-05,6.09555497,-2.89423148,-1,-0.9753364817889766
8.28393464e+03,7.19999584,-1.87254451e-10,3.68790791,1.60558091,-2.34510102,7.39732196e-01,4.24451609e-05,6.10176806,-2.86949546,-1,-0.974246836736415
8.63949057e+03,7.19999577,-1.81157908e-10,3.68864777,1.59983665,-2.34510108,7.39732202e-01,4.24451685e-05,6.10804879,-2.84453636,-1,-0.973110600645415
9.01033301e+03,7.19999571,-1.75340717e-10,3.68941401,1.59413890,-2.34510097,7.39732196e-01,4.24451775e-05,6.11440413,-2.81924885,-1,-0.9719255140560773
9.39752830e+03,7.19999564,-1.69794590e-10,3.69021421,1.58851615,-2.34510190,7.39732253e-01,4.24451809e-05,6.12084226,-2.79383284,-1,-0.9706881693076345
9.80128111e+03,7.19999557,-1.64580079e-10,3.69095959,1.58296332,-2.34510262,7.39732305e-01,4.24451850e-05,6.12736410,-2.76815794,-1,-0.9693979123442232
1.02225328e+04,7.19999550,-1.59588425e-10,3.69173201,1.57749039,-2.34510255,7.39732301e-01,4.24451944e-05,6.13397596,-2.74227728,-1,-0.968051734898743
1.06619039e+04,7.19999543,-1.54800203e-10,3.69246975,1.57211182,-2.34510265,7.39732309e-01,4.24452025e-05,6.14067968,-2.71619430,-1,-0.9666476539678965
1.11204047e+04,7.19999537,-1.50285586e-10,3.69323981,1.56683309,-2.34510275,7.39732318e-01,4.24452104e-05,6.14748973,-2.68991193,-1,-0.9651824410076953
1.15988322e+04,7.19999529,-1.46035081e-10,3.69398590,1.56167373,-2.34510297,7.39732336e-01,4.24452175e-05,6.15442589,-2.66352101,-1,-0.963653549076609
1.20985101e+04,7.19999522,-1.42171433e-10,3.69478507,1.55663468,-2.34510660,7.39732575e-01,4.24452047e-05,6.16146896,-2.63697488,-1,-0.9620567480786476
1.26196733e+04,7.19999515,-1.38391919e-10,3.69554491,1.55172952,-2.34510638,7.39732563e-01,4.24452145e-05,6.16863400,-2.61027593,-1,-0.9603912873531267
1.31634588e+04,7.19999508,-1.34809584e-10,3.69633296,1.54697761,-2.34510657,7.39732579e-01,4.24452212e-05,6.17593065,-2.58353891,-1,-0.9586535334338981
1.37316497e+04,7.19999500,-1.31525599e-10,3.69710119,1.54239333,-2.34510669,7.39732589e-01,4.24452278e-05,6.18340256,-2.55663792,-1,-0.9568377881384736
1.43243577e+04,7.19999492,-1.28451923e-10,3.69789053,1.53798969,-2.34510670,7.39732593e-01,4.24452345e-05,6.19097469,-2.52988947,-1,-0.9549436945115598
1.49434711e+04,7.19999485,-1.25603998e-10,3.69865259,1.53379592,-2.34510686,7.39732608e-01,4.24452395e-05,6.19869763,-2.50318754,-1,-0.9529652181871691
1.55898618e+04,7.19999477,-1.23005718e-10,3.69943236,1.52982260,-2.34510766,7.39732658e-01,4.24452413e-05,6.20656361,-2.47656212,-1,-0.9508995728687891
1.62646146e+04,7.19999468,-1.20697183e-10,3.70024325,1.52608253,-2.34511162,7.39732923e-01,4.24452240e-05,6.21454268,-2.45003262,-1,-0.948743291903757
1.69695524e+04,7.19999460,-1.18622581e-10,3.70105544,1.52260531,-2.34511101,7.39732887e-01,4.24452316e-05,6.22257162,-2.42361160,-1,-0.9464905499222911
1.77050803e+04,7.19999451,-1.16796328e-10,3.70182664,1.51940225,-2.34511155,7.39732927e-01,4.24452318e-05,6.23068742,-2.39701123,-1,-0.944140052362266
1.84732222e+04,7.19999443,-1.15215391e-10,3.70261495,1.51649391,-2.34511223,7.39732977e-01,4.24452305e-05,6.23861080,-2.37038233,-1,-0.9416853315261114
1.92751557e+04,7.19999433,-1.13897423e-10,3.70340294,1.51390054,-2.34511278,7.39733016e-01,4.24452295e-05,6.24637078,-2.34346620,-1,-0.9391226242038571
2.01110903e+04,7.19999424,-1.12845466e-10,3.70420484,1.51163133,-2.34511339,7.39733053e-01,4.24452283e-05,6.25393458,-2.31606419,-1,-0.9364512609045988
2.09844022e+04,7.19999414,-1.12091853e-10,3.70502114,1.50972794,-2.34511395,7.39733077e-01,4.24452275e-05,6.26115904,-2.28833797,-1,-0.9336604524388821
2.18942662e+04,7.19999404,-1.11621877e-10,3.70588134,1.50817599,-2.34511451,7.39733138e-01,4.24452231e-05,6.26846537,-2.25956388,-1,-0.9307528358658674
2.28416611e+04,7.19999393,-1.11501785e-10,3.70675677,1.50702271,-2.34511491,7.39733111e-01,4.24452260e-05,6.27590892,-2.22994132,-1,-0.92772528327292
2.38298662e+04,7.19999382,-1.11735065e-10,3.70764139,1.50636268,-2.34511475,7.39733037e-01,4.24452327e-05,6.28360474,-2.19947895,-1,-0.9245673151301014
2.48571127e+04,7.19999371,-1.12413789e-10,3.70857779,1.50624509,-2.34511496,7.39732869e-01,4.24452550e-05,6.29166319,-2.16819659,-1,-0.9212845839219523
2.59257937e+04,7.19999359,-1.13665653e-10,3.70953951,1.50681211,-2.34511565,7.39732894e-01,4.24452464e-05,6.30017945,-2.13605721,-1,-0.9178694421129943
2.70339591e+04,7.19999346,-1.15601561e-10,3.71054638,1.50818203,-2.34511482,7.39732764e-01,4.24452577e-05,6.30918585,-2.10310901,-1,-0.9143281215610422
2.81804278e+04,7.19999333,-1.18424387e-10,3.71161375,1.51051478,-2.34511357,7.39732640e-01,4.24452685e-05,6.31869172,-2.06938330,-1,-0.9106643966608785
2.93613175e+04,7.19999318,-1.22340353e-10,3.71276075,1.51393501,-2.34511203,7.39732534e-01,4.24452776e-05,6.32877768,-2.03474714,-1,-0.9068906739258079
3.05725101e+04,7.19999303,-1.27565307e-10,3.71401067,1.51851963,-2.34510955,7.39732395e-01,4.24452898e-05,6.33928635,-1.99952244,-1,-0.9030201134059141
3.18094081e+04,7.19999287,-1.34233258e-10,3.71539275,1.52417953,-2.34510624,7.39732262e-01,4.24453014e-05,6.35020085,-1.96388007,-1,-0.8990674071509918
3.30696331e+04,7.19999269,-1.42353894e-10,3.71695180,1.53063762,-2.34510290,7.39732153e-01,4.24453109e-05,6.36157527,-1.92769762,-1,-0.8950401557203084
3.43579062e+04,7.19999250,-1.51683427e-10,3.71874467,1.53735594,-2.34510046,7.39732080e-01,4.24453173e-05,6.37348328,-1.89080860,-1,-0.8909232720804139
3.56854969e+04,7.19999229,-1.61629830e-10,3.72083728,1.54356807,-2.34509918,7.39732043e-01,4.24453205e-05,6.38602199,-1.85270927,-1,-0.8866807427337203
3.70659901e+04,7.19999206,-1.71432147e-10,3.72330231,1.54851995,-2.34509868,7.39732029e-01,4.24453217e-05,6.39924375,-1.81331226,-1,-0.8822691549499921
3.85058366e+04,7.19999181,-1.80287008e-10,3.72623476,1.55160540,-2.34509853,7.39732025e-01,4.24453220e-05,6.41315078,-1.77231805,-1,-0.8776678941615699
4.00009959e+04,7.19999153,-1.87816607e-10,3.72971079,1.55262486,-2.34509851,7.39732026e-01,4.24453220e-05,6.42766081,-1.72976697,-1,-0.8728898724352713
4.15423119e+04,7.19999124,-1.93779645e-10,3.73385681,1.55134340,-2.34509849,7.39732027e-01,4.24453218e-05,6.44260259,-1.68604686,-1,-0.867964349559487
4.31109975e+04,7.19999093,-1.97583002e-10,3.73893179,1.54708621,-2.34509850,7.39732031e-01,4.24453213e-05,6.45764343,-1.64213180,-1,-0.8629513627302363
4.46779770e+04,7.19999062,-1.98654505e-10,3.74514980,1.53933096,-2.34509852,7.39732039e-01,4.24453204e-05,6.47245833,-1.59875848,-1,-0.8579438280176044
4.62415071e+04,7.19999031,-1.97312046e-10,3.75222494,1.52875407,-2.34509858,7.39732058e-01,4.24453183e-05,6.48695567,-1.55619430,-1,-0.8529473164167858
4.78029762e+04,7.19999000,-1.94386527e-10,3.75990579,1.51622377,-2.34509872,7.39732097e-01,4.24453140e-05,6.50121393,-1.51392626,-1,-0.8479573910725473
4.93713669e+04,7.19998970,-1.89995459e-10,3.76803607,1.50195265,-2.34509906,7.39732172e-01,4.24453058e-05,6.51515171,-1.47239699,-1,-0.8429453466436194
5.09448819e+04,7.19998941,-1.84638801e-10,3.77653352,1.48639388,-2.34509958,7.39732282e-01,4.24452937e-05,6.52883568,-1.43115694,-1,-0.8379169266908715
