star_age,star_mass,star_mdot,log_Teff,log_R,log_surf_z,surface_h1,surface_he3,log_center_T,log_center_Rho,phase,x
1.21344521e+03,6.49999956e-01,-3.76325466e-11,3.70530981,1.00121925,-5.84509867,7.50981422e-01,4.13274933e-05,5.71382948,-2.17154073,-1,-1.0
1.28348749e+03,6.49999953e-01,-3.68980251e-11,3.70550438,9.98102546e-01,-5.84509867,7.50981422e-01,4.13274934e-05,5.71676779,-2.16276792,-1,-0.9999982873877646
1.35732132e+03,6.49999950e-01,-3.61526964e-11,3.70570503,9.94880185e-01,-5.84509867,7.50981422e-01,4.13274934e-05,5.71980617,-2.15369447,-1,-0.9999964820678829
1.43507769e+03,6.49999948e-01,-3.53976659e-11,3.70591282,9.91552434e-01,-5.84509867,7.50981422e-01,4.13274934e-05,5.72294467,-2.14432084,-1,-0.9999945808375026
1.51746352e+03,6.49999945e-01,-3.46333884e-11,3.70612635,9.88105808e-01,-5.84509867,7.50981422e-01,4.13274934e-05,5.72619662,-2.13460738,-1,-0.9999925664116376
1.60442630e+03,6.49999942e-01,-3.38606652e-11,3.70634594,9.84546764e-01,-5.84509867,7.50981422e-01,4.13274935e-05,5.72955536,-2.12457553,-1,-0.9999904400742161
1.69611438e+03,6.49999939e-01,-3.30811661e-11,3.70657152,9.80877073e-01,-5.84509867,7.50981422e-01,4.13274935e-05,5.73301982,-2.11422597,-1,-0.9999881981979144
1.79315077e+03,6.49999936e-01,-3.22938428e-11,3.70680320,9.77087765e-01,-5.84509867,7.50981422e-01,4.13274936e-05,5.73659854,-2.10353517,-1,-0.9999858255494399
1.89545489e+03,6.49999932e-01,-3.15023985e-11,3.70704134,9.73186539e-01,-5.84509867,7.50981422e-01,4.13274937e-05,5.74028427,-2.09252395,-1,-0.999983324099064
2.00341682e+03,6.49999929e-01,-3.07111984e-11,3.70728546,9.69171053e-01,-5.84509867,7.50981422e-01,4.13274938e-05,5.74407916,-2.08118533,-1,-0.9999806843088933
2.11761301e+03,6.49999926e-01,-2.99162629e-11,3.70753580,9.65036381e-01,-5.84509867,7.50981422e-01,4.13274939e-05,5.74798823,-2.06950532,-1,-0.9999778920840796
2.23791180e+03,6.49999922e-01,-2.91200336e-11,3.70779172,9.60791391e-01,-5.84509867,7.50981422e-01,4.13274940e-05,5.75200263,-2.05751079,-1,-0.9999749506438572
2.36474078e+03,6.49999919e-01,-2.83239478e-11,3.70805331,9.56434167e-01,-5.84509867,7.50981422e-01,4.13274942e-05,5.75612458,-2.04519293,-1,-0.9999718495331716
2.49896067e+03,6.49999915e-01,-2.75294485e-11,3.70832074,9.51957813e-01,-5.84509867,7.50981422e-01,4.13274944e-05,5.76036037,-2.03253128,-1,-0.9999685677064544
2.64045449e+03,6.49999911e-01,-2.67335152e-11,3.70859276,9.47370879e-01,-5.84509867,7.50981422e-01,4.13274947e-05,5.76470191,-2.01955195,-1,-0.9999651080239974
2.78968356e+03,6.49999907e-01,-2.59447640e-11,3.70887028,9.42673011e-01,-5.84509867,7.50981422e-01,4.13274950e-05,5.76914979,-2.00625270,-1,-0.9999614592060098
2.94708591e+03,6.49999903e-01,-2.51666796e-11,3.70915206,9.37865686e-01,-5.84509867,7.50981422e-01,4.13274954e-05,5.77370289,-1.99263604,-1,-0.9999576105421673
3.11308753e+03,6.49999899e-01,-2.43878281e-11,3.70943883,9.32949754e-01,-5.84509867,7.50981422e-01,4.13274960e-05,5.77836002,-1.97870707,-1,-0.9999535516165368
3.28816132e+03,6.49999895e-01,-2.36220629e-11,3.70973002,9.27926706e-01,-5.84509867,7.50981422e-01,4.13274967e-05,5.78312045,-1.96446848,-1,-0.9999492708661836
3.47275874e+03,6.49999891e-01,-2.28630259e-11,3.71002545,9.22798503e-01,-5.84509867,7.50981422e-01,4.13274976e-05,5.78798252,-1.94992714,-1,-0.9999447572524047
3.66735871e+03,6.49999886e-01,-2.21123977e-11,3.71032490,9.17567244e-01,-5.84509867,7.50981422e-01,4.13274987e-05,5.79294459,-1.93508483,-1,-0.9999399990650695
3.87245083e+03,6.49999882e-01,-2.13718820e-11,3.71062813,9.12235315e-01,-5.84509867,7.50981422e-01,4.13275002e-05,5.79800441,-1.91994765,-1,-0.9999349843329093
4.08895447e+03,6.49999877e-01,-2.06429258e-11,3.71093510,9.06801460e-01,-5.84509867,7.50981422e-01,4.13275021e-05,5.80316372,-1.90451278,-1,-0.9999296905762973
4.31721201e+03,6.49999873e-01,-1.99262879e-11,3.71124465,9.01275138e-01,-5.84509867,7.50981422e-01,4.13275046e-05,5.80829899,-1.88900225,-1,-0.999924109423659
4.55757922e+03,6.49999868e-01,-1.92182562e-11,3.71155629,8.95655119e-01,-5.84509867,7.50981422e-01,4.13275078e-05,5.81358116,-1.87312845,-1,-0.9999182321760189
4.81082282e+03,6.49999863e-01,-1.85307182e-11,3.71187163,8.89941326e-01,-5.84509867,7.50981422e-01,4.13275120e-05,5.81900901,-1.85687992,-1,-0.9999120400862141
5.07804591e+03,6.49999859e-01,-1.78552957e-11,3.71218869,8.84136104e-01,-5.84509867,7.50981422e-01,4.13275175e-05,5.82452220,-1.84037179,-1,-0.9999055061822134
5.35923809e+03,6.49999854e-01,-1.71931615e-11,3.71250841,8.78245974e-01,-5.84509867,7.50981422e-01,4.13275246e-05,5.83012132,-1.82360750,-1,-0.9998986307183085
5.65585602e+03,6.49999849e-01,-1.65460205e-11,3.71282826,8.72269494e-01,-5.84509867,7.50981422e-01,4.13275340e-05,5.83580838,-1.80658164,-1,-0.9998913780775299
5.96811146e+03,6.49999844e-01,-1.59157873e-11,3.71315008,8.66211935e-01,-5.84509867,7.50981422e-01,4.13275464e-05,5.84157537,-1.78931625,-1,-0.9998837430821085
6.29729969e+03,6.49999839e-01,-1.53010518e-11,3.71347414,8.60072191e-01,-5.84509867,7.50981422e-01,4.13275627e-05,5.84742433,-1.77180822,-1,-0.9998756940609966
6.64380544e+03,6.49999833e-01,-1.47017764e-11,3.71379915,8.53859229e-01,-5.84509867,7.50981422e-01,4.13275842e-05,5.85334459,-1.75408398,-1,-0.9998672216071148
7.00920059e+03,6.49999828e-01,-1.41190149e-11,3.71412326,8.47569830e-01,-5.84509867,7.50981422e-01,4.13276127e-05,5.85934140,-1.73612854,-1,-0.9998582872862355
7.39363767e+03,6.49999823e-01,-1.35510091e-11,3.71444815,8.41211170e-01,-5.84509867,7.50981422e-01,4.13276504e-05,5.86540704,-1.71796344,-1,-0.9998488873688294
7.79896851e+03,6.49999818e-01,-1.30026349e-11,3.71477747,8.34782111e-01,-5.84509867,7.50981422e-01,4.13277006e-05,5.87154331,-1.69958401,-1,-0.9998389765755776
8.22580446e+03,6.49999812e-01,-1.24683511e-11,3.71510425,8.28286736e-01,-5.84509867,7.50981422e-01,4.13277674e-05,5.87774594,-1.68100560,-1,-0.9998285399582877
8.67511156e+03,6.49999807e-01,-1.19520969e-11,3.71543106,8.21728745e-01,-5.84509867,7.50981422e-01,4.13278561e-05,5.88401084,-1.66223780,-1,-0.9998175538961992
9.14825987e+03,6.49999801e-01,-1.14527075e-11,3.71575844,8.15107523e-01,-5.84509867,7.50981422e-01,4.13279744e-05,5.89033957,-1.64328050,-1,-0.9998059848898097
9.64699110e+03,6.49999796e-01,-1.09690471e-11,3.71608673,8.08428439e-01,-5.84509867,7.50981422e-01,4.13281331e-05,5.89672599,-1.62414841,-1,-0.9997937903523579
1.01719852e+04,6.49999790e-01,-1.05023434e-11,3.71641235,8.01693240e-01,-5.84509867,7.50981422e-01,4.13283451e-05,5.90316960,-1.60484461,-1,-0.9997809536583045
1.07246831e+04,6.49999784e-01,-1.00512452e-11,3.71673712,7.94904738e-01,-5.84509867,7.50981421e-01,4.13286286e-05,5.90966731,-1.58537417,-1,-0.9997674395752963
1.13065856e+04,6.49999779e-01,-9.61588617e-12,3.71706084,7.88065743e-01,-5.84509867,7.50981421e-01,4.13290079e-05,5.91621623,-1.56574872,-1,-0.9997532114070914
1.19192692e+04,6.49999773e-01,-9.19572587e-12,3.71738325,7.81178746e-01,-5.84509867,7.50981421e-01,4.13295162e-05,5.92281430,-1.54597429,-1,-0.9997382306064981
1.25644601e+04,6.49999767e-01,-8.79098727e-12,3.71770468,7.74245096e-01,-5.84509867,7.50981421e-01,4.13301984e-05,5.92945967,-1.52605925,-1,-0.9997224549659922
1.32439423e+04,6.49999762e-01,-8.40002651e-12,3.71802252,7.67267303e-01,-5.84509867,7.50981421e-01,4.13311154e-05,5.93615004,-1.50600876,-1,-0.9997058408647744
1.39594265e+04,6.49999756e-01,-8.02833260e-12,3.71834053,7.60248427e-01,-5.84509867,7.50981420e-01,4.13323482e-05,5.94288311,-1.48582986,-1,-0.9996883464743128
1.47127468e+04,6.49999750e-01,-7.66885225e-12,3.71865626,7.53191881e-01,-5.84509867,7.50981420e-01,4.13340055e-05,5.94965567,-1.46553066,-1,-0.9996699269488071
1.55058401e+04,6.49999744e-01,-7.32244944e-12,3.71896870,7.46100263e-01,-5.84509867,7.50981419e-01,4.13362328e-05,5.95646511,-1.44511606,-1,-0.9996505349288818
1.63409822e+04,6.49999738e-01,-6.99134175e-12,3.71928382,7.38974532e-01,-5.84509867,7.50981418e-01,4.13392271e-05,5.96331074,-1.42459403,-1,-0.9996301147686766
1.72202199e+04,6.49999732e-01,-6.67334038e-12,3.71959219,7.31820515e-01,-5.84509867,7.50981417e-01,4.13432542e-05,5.97018620,-1.40398150,-1,-0.9996086164216378
1.81458546e+04,6.49999726e-01,-6.36753907e-12,3.71989431,7.24641000e-01,-5.84509867,7.50981415e-01,4.13486663e-05,5.97708915,-1.38328378,-1,-0.9995859836159565
1.91206061e+04,6.49999720e-01,-6.07564126e-12,3.72019611,7.17438883e-01,-5.84509867,7.50981412e-01,4.13559423e-05,5.98401776,-1.36250577,-1,-0.999562149849475
2.01471000e+04,6.49999714e-01,-5.79596483e-12,3.72049417,7.10219692e-01,-5.84509867,7.50981409e-01,4.13657215e-05,5.99096650,-1.34166987,-1,-0.9995370509233309
2.12284852e+04,6.49999708e-01,-5.52838053e-12,3.72078791,7.02989551e-01,-5.84509867,7.50981405e-01,4.13788811e-05,5.99792954,-1.32078901,-1,-0.9995106098433907
2.23674847e+04,6.49999702e-01,-5.27208675e-12,3.72107585,6.95754510e-01,-5.84509867,7.50981399e-01,4.13965482e-05,6.00490000,-1.29988714,-1,-0.9994827600292528
2.35676096e+04,6.49999696e-01,-5.02874643e-12,3.72136138,6.88523715e-01,-5.84509867,7.50981391e-01,4.14202468e-05,6.01186934,-1.27898733,-1,-0.9994534156305879
2.48321141e+04,6.49999690e-01,-4.79669563e-12,3.72163933,6.81308212e-01,-5.84509867,7.50981380e-01,4.14519832e-05,6.01882600,-1.25812121,-1,-0.9994224970785591
2.61650030e+04,6.49999683e-01,-4.57563220e-12,3.72191078,6.74120003e-01,-5.84509867,7.50981366e-01,4.14944035e-05,6.02575899,-1.23732532,-1,-0.9993899064513188
2.75705875e+04,6.49999677e-01,-4.36570039e-12,3.72217528,6.66975298e-01,-5.84509867,7.50981347e-01,4.15509729e-05,6.03265307,-1.21664518,-1,-0.9993555383351959
2.90536172e+04,6.49999671e-01,-4.16686845e-12,3.72243240,6.59893271e-01,-5.84509867,7.50981322e-01,4.16261893e-05,6.03948978,-1.19613596,-1,-0.9993192765971477
3.06193725e+04,6.49999664e-01,-3.97884145e-12,3.72268078,6.52898602e-01,-5.84509867,7.50981289e-01,4.17258122e-05,6.04624533,-1.17587279,-1,-0.9992809921254774
3.22739576e+04,6.49999658e-01,-3.80257953e-12,3.72292044,6.46022268e-01,-5.84509867,7.50981245e-01,4.18571852e-05,6.05288889,-1.15594404,-1,-0.9992405356656543
3.40240748e+04,6.49999652e-01,-3.63738701e-12,3.72315127,6.39299606e-01,-5.84509867,7.50981188e-01,4.20293753e-05,6.05938598,-1.13645648,-1,-0.999197743338933
3.58767415e+04,6.49999645e-01,-3.48331985e-12,3.72336654,6.32773476e-01,-5.84509867,7.50981113e-01,4.22531931e-05,6.06569495,-1.11752742,-1,-0.9991524435620196
3.78402853e+04,6.49999638e-01,-3.34129467e-12,3.72357146,6.26489439e-01,-5.84509867,7.50981017e-01,4.25412110e-05,6.07177257,-1.09928966,-1,-0.9991044327157624
3.99223525e+04,6.49999632e-01,-3.21075404e-12,3.72376302,6.20494211e-01,-5.84509867,7.50980895e-01,4.29066262e-05,6.07757365,-1.08188232,-1,-0.9990535238395579
4.21362352e+04,6.49999625e-01,-3.09207226e-12,3.72393942,6.14843888e-01,-5.84509867,7.50980742e-01,4.33668764e-05,6.08304342,-1.06547263,-1,-0.998999391926666
4.44868512e+04,6.49999618e-01,-2.98530603e-12,3.72410604,6.09566780e-01,-5.84509867,7.50980554e-01,4.39321791e-05,6.08815333,-1.05014314,-1,-0.9989419167313657
4.69870100e+04,6.49999610e-01,-2.88956599e-12,3.72425309,6.04696081e-01,-5.84509867,7.50980325e-01,4.46167757e-05,6.09287042,-1.03599231,-1,-0.9988807850470277
4.96415622e+04,6.49999603e-01,-2.80476248e-12,3.72438576,6.00222495e-01,-5.84509867,7.50980056e-01,4.54245181e-05,6.09720359,-1.02299064,-1,-0.9988158782710466
5.24610255e+04,6.49999595e-01,-2.72895260e-12,3.72450533,5.96124011e-01,-5.84509867,7.50979745e-01,4.63587795e-05,6.10117452,-1.01107522,-1,-0.9987469392338709
5.54542058e+04,6.49999587e-01,-2.66131129e-12,3.72461389,5.92346118e-01,-5.84509867,7.50979392e-01,4.74160878e-05,6.10483555,-1.00008782,-1,-0.9986737526213781
5.86259621e+04,6.49999579e-01,-2.59962198e-12,3.72471420,5.88805757e-01,-5.84509867,7.50979003e-01,4.85852339e-05,6.10826718,-9.89788268e-01,-1,-0.998596199625573
6.19768201e+04,6.49999570e-01,-2.54212172e-12,3.72480919,5.85409594e-01,-5.84509867,7.50978581e-01,4.98502641e-05,6.11156009,-9.79907125e-01,-1,-0.9985142673925015
6.55356792e+04,6.49999561e-01,-2.48732828e-12,3.72490148,5.82060603e-01,-5.84509867,7.50978130e-01,5.12041907e-05,6.11480797,-9.70160729e-01,-1,-0.998427249299449
6.92841774e+04,6.49999552e-01,-2.43296435e-12,3.72499419,5.78649341e-01,-5.84509867,7.50977658e-01,5.26179046e-05,6.11811683,-9.60231490e-01,-1,-0.9983355943178919
7.32451013e+04,6.49999543e-01,-2.37730554e-12,3.72509002,5.75065441e-01,-5.84509867,7.50977172e-01,5.40761783e-05,6.12159418,-9.49798323e-01,-1,-0.9982387452899256
7.74163296e+04,6.49999533e-01,-2.31858043e-12,3.72519166,5.71200471e-01,-5.84509867,7.50976680e-01,5.55523466e-05,6.12534474,-9.38545824e-01,-1,-0.9981367540837122
8.17936407e+04,6.49999523e-01,-2.25537334e-12,3.72530131,5.66961196e-01,-5.84509867,7.50976191e-01,5.70206363e-05,6.12945876,-9.26201989e-01,-1,-0.9980297239221023
8.63944697e+04,6.49999513e-01,-2.18562272e-12,3.72542239,5.62184635e-01,-5.84509867,7.50975716e-01,5.84440690e-05,6.13409489,-9.12291693e-01,-1,-0.9979172284973633
9.11960580e+04,6.49999503e-01,-2.10855698e-12,3.72555633,5.56780615e-01,-5.84509867,7.50975269e-01,5.97844941e-05,6.13934041,-8.96548313e-01,-1,-0.9977998242827685
9.61902320e+04,6.49999493e-01,-2.02340200e-12,3.72570550,5.50599188e-01,-5.84509867,7.50974868e-01,6.09901343e-05,6.14534168,-8.78533191e-01,-1,-0.9976777111319971
1.01345631e+05,6.49999482e-01,-1.92982822e-12,3.72586886,5.43567982e-01,-5.84509867,7.50974525e-01,6.20167769e-05,6.15216992,-8.58032891e-01,-1,-0.9975516558493069
1.06639062e+05,6.49999473e-01,-1.82908041e-12,3.72604890,5.35600868e-01,-5.84509867,7.50974260e-01,6.28124859e-05,6.15991010,-8.34795694e-01,-1,-0.9974222255295382
1.12045741e+05,6.49999463e-01,-1.72321346e-12,3.72624010,5.26751781e-01,-5.84509867,7.50974079e-01,6.33560605e-05,6.16851235,-8.08971704e-01,-1,-0.9972900261692637
1.17568550e+05,6.49999454e-01,-1.61533834e-12,3.72643726,5.17198608e-01,-5.84509867,7.50973975e-01,6.36680138e-05,6.17780403,-7.81080601e-01,-1,-0.9971549873003539
1.23250560e+05,6.49999445e-01,-1.50964376e-12,3.72663211,5.07207733e-01,-5.84509867,7.50973929e-01,6.38057510e-05,6.18752507,-7.51895335e-01,-1,-0.9970160557885935
1.29158867e+05,6.49999437e-01,-1.40930843e-12,3.72681505,4.97069522e-01,-5.84509867,7.50973915e-01,6.38482374e-05,6.19739226,-7.22262401e-01,-1,-0.9968715910615947
1.35362620e+05,6.49999428e-01,-1.31640997e-12,3.72698499,4.86981302e-01,-5.84509867,7.50973912e-01,6.38560622e-05,6.20721349,-6.92765619e-01,-1,-0.996719902348819
1.41893065e+05,6.49999420e-01,-1.23057247e-12,3.72713940,4.77020020e-01,-5.84509867,7.50973912e-01,6.38568930e-05,6.21691613,-6.63621201e-01,-1,-0.9965602256505524
1.48771500e+05,6.49999412e-01,-1.15141934e-12,3.72728346,4.67197918e-01,-5.84509867,7.50973912e-01,6.38569350e-05,6.22665614,-6.34577895e-01,-1,-0.9963920402068281
1.56025138e+05,6.49999404e-01,-1.07820263e-12,3.72740827,4.57509271e-01,-5.84509867,7.50973912e-01,6.38569359e-05,6.23610235,-6.06212097e-01,-1,-0.9962146806293014
1.63665873e+05,6.49999396e-01,-1.01011203e-12,3.72751854,4.47947109e-01,-5.84509867,7.50973912e-01,6.38569359e-05,6.24542917,-5.78202105e-01,-1,-0.9960278560963437
1.71715048e+05,6.49999388e-01,-9.47292062e-13,3.72761781,4.38503428e-01,-5.84509867,7.50973912e-01,6.38569359e-05,6.25464334,-5.50526344e-01,-1,-0.9958310447476882
1.80192084e+05,6.49999380e-01,-8.88913049e-13,3.72770154,4.29174379e-01,-5.84509867,7.50973912e-01,6.38569359e-05,6.26374783,-5.23174282e-01,-1,-0.9956237717181217
1.89123381e+05,6.49999373e-01,-8.34625439e-13,3.72778023,4.19948670e-01,-5.84509867,7.50973912e-01,6.38569359e-05,6.27275387,-4.96117520e-01,-1,-0.9954053914980602
1.98524269e+05,6.49999365e-01,-7.84113584e-13,3.72783582,4.10829123e-01,-5.84509867,7.50973912e-01,6.38569359e-05,6.28165854,-4.69363786e-01,-1,-0.9951755292518251
2.08423118e+05,6.49999358e-01,-7.36973669e-13,3.72787909,4.01805240e-01,-5.84509867,7.50973912e-01,6.38569359e-05,6.29047286,-4.42881472e-01,-1,-0.994933491301125
2.18845630e+05,6.49999350e-01,-6.93116847e-13,3.72791011,3.92872284e-01,-5.84509867,7.50973912e-01,6.38569359e-05,6.29920169,-4.16655123e-01,-1,-0.994678649203258
2.29817595e+05,6.49999343e-01,-6.52145785e-13,3.72792758,3.84026262e-01,-5.84509867,7.50973912e-01,6.38569359e-05,6.30784791,-3.90670898e-01,-1,-0.994410372363824
2.41366144e+05,6.49999336e-01,-6.13811335e-13,3.72793097,3.75262636e-01,-5.84509867,7.50973912e-01,6.38569359e-05,6.31641641,-3.64918848e-01,-1,-0.9941279973994699
2.53520258e+05,6.49999329e-01,-5.77990796e-13,3.72791997,3.66577370e-01,-5.84509867,7.50973912e-01,6.38569359e-05,6.32491118,-3.39389727e-01,-1,-0.9938308156922697
2.66315657e+05,6.49999321e-01,-5.44567425e-13,3.72790177,3.57964870e-01,-5.84509867,7.50973912e-01,6.38569359e-05,6.33333712,-3.14064362e-01,-1,-0.9935179538481956
2.79781517e+05,6.49999314e-01,-5.13221530e-13,3.72787175,3.49423598e-01,-5.84509867,7.50973912e-01,6.38569359e-05,6.34169602,-2.88938820e-01,-1,-0.9931886984813529
2.93949277e+05,6.49999307e-01,-4.83863759e-13,3.72782658,3.40951798e-01,-5.84509867,7.50973912e-01,6.38569359e-05,6.34998836,-2.64015519e-01,-1,-0.992842280872961
3.08864994e+05,6.49999300e-01,-4.56325243e-13,3.72776815,3.32545714e-01,-5.84509867,7.50973912e-01,6.38569360e-05,6.35821747,-2.39278731e-01,-1,-0.9924775748777586
3.24561412e+05,6.49999294e-01,-4.30471438e-13,3.72769859,3.24200078e-01,-5.84509867,7.50973912e-01,6.38569360e-05,6.36639008,-2.14708531e-01,-1,-0.9920937798682525
3.41078007e+05,6.49999287e-01,-4.06250464e-13,3.72762095,3.15911459e-01,-5.84509867,7.50973912e-01,6.38569360e-05,6.37450988,-1.90297503e-01,-1,-0.9916899306120062
3.58449489e+05,6.49999280e-01,-3.83409880e-13,3.72752822,3.07680007e-01,-5.84509867,7.50973912e-01,6.38569361e-05,6.38257549,-1.66045812e-01,-1,-0.9912651784106233
3.76743048e+05,6.49999273e-01,-3.62066038e-13,3.72742554,2.99502752e-01,-5.84509867,7.50973912e-01,6.38569362e-05,6.39058927,-1.41951694e-01,-1,-0.9908178803933112
3.95987570e+05,6.49999266e-01,-3.41956039e-13,3.72731192,2.91376963e-01,-5.84509867,7.50973912e-01,6.38569362e-05,6.39855364,-1.18001932e-01,-1,-0.9903473302649998
4.16235418e+05,6.49999260e-01,-3.23016411e-13,3.72719591,2.83296796e-01,-5.84509867,7.50973912e-01,6.38569364e-05,6.40647457,-9.41788987e-02,-1,-0.9898522476916612
4.37549286e+05,6.49999253e-01,-3.05235534e-13,3.72706115,2.75267247e-01,-5.84509867,7.50973912e-01,6.38569365e-05,6.41434756,-7.04999345e-02,-1,-0.9893310997347408
4.59966486e+05,6.49999246e-01,-2.88477739e-13,3.72691674,2.67282099e-01,-5.84509867,7.50973912e-01,6.38569367e-05,6.42217832,-4.69482394e-02,-1,-0.9887829740740264
4.83549670e+05,6.49999240e-01,-2.72680452e-13,3.72676114,2.59340987e-01,-5.84509867,7.50973912e-01,6.38569369e-05,6.42996758,-2.35155476e-02,-1,-0.9882063387979104
5.08378452e+05,6.49999233e-01,-2.57822953e-13,3.72659906,2.51440833e-01,-5.84509867,7.50973912e-01,6.38569372e-05,6.43771784,-1.99306542e-04,-1,-0.9875992472548772
5.34479313e+05,6.49999227e-01,-2.43771744e-13,3.72642312,2.43582404e-01,-5.84509867,7.50973912e-01,6.38569376e-05,6.44542847,2.30015942e-02,-1,-0.9869610519548024
5.61963400e+05,6.49999220e-01,-2.30588131e-13,3.72623634,2.35763700e-01,-5.84509867,7.50973912e-01,6.38569381e-05,6.45310220,4.60910312e-02,-1,-0.9862890352289845
5.90860138e+05,6.49999214e-01,-2.18125577e-13,3.72603834,2.27982768e-01,-5.84509867,7.50973912e-01,6.38569387e-05,6.46073934,6.90732108e-02,-1,-0.9855824776031998
6.21274134e+05,6.49999208e-01,-2.06367893e-13,3.72583059,2.20238041e-01,-5.84509867,7.50973912e-01,6.38569395e-05,6.46834208,9.19552975e-02,-1,-0.9848388213190759
6.53264998e+05,6.49999201e-01,-1.95274006e-13,3.72561277,2.12528224e-01,-5.84509867,7.50973912e-01,6.38569405e-05,6.47591168,1.14736903e-01,-1,-0.9840566088453137
6.86924640e+05,6.49999195e-01,-1.84807633e-13,3.72538454,2.04852890e-01,-5.84509867,7.50973912e-01,6.38569417e-05,6.48344799,1.37421364e-01,-1,-0.9832335928794188
7.22342716e+05,6.49999189e-01,-1.74927307e-13,3.72515070,1.97208790e-01,-5.84509867,7.50973912e-01,6.38569433e-05,6.49095438,1.60016365e-01,-1,-0.9823675812317227
