star_age,star_mass,star_mdot,log_Teff,log_R,log_surf_z,surface_h1,surface_he3,log_center_T,log_center_Rho,phase,x
3.01735515e+02,3.59999976,-6.87074728e-10,3.66555688,1.72258073,-5.84509869,7.50981423e-01,4.13274931e-05,5.71516231,-3.62400540,-1,-1.0
3.18457611e+02,3.59999975,-6.76569354e-10,3.66574127,1.72011128,-5.84509869,7.50981423e-01,4.13274931e-05,5.71757204,-3.61678614,-1,-0.999982649357301
3.35063591e+02,3.59999974,-6.66337798e-10,3.66633007,1.71766935,-5.84509869,7.50981423e-01,4.13274931e-05,5.71993485,-3.60970985,-1,-0.9999654191951464
3.36509224e+02,3.59999974,-6.64638158e-10,3.67293488,1.71703900,-5.84509869,7.50981423e-01,4.13274931e-05,5.72022268,-3.60885844,-1,-0.999963919223991
3.37954857e+02,3.59999974,-6.62938518e-10,3.67953968,1.71640866,-5.84509869,7.50981423e-01,4.13274931e-05,5.72051051,-3.60800703,-1,-0.9999624192528356
3.39400489e+02,3.59999973,-6.61238879e-10,3.68614448,1.71577831,-5.84509869,7.50981423e-01,4.13274931e-05,5.72079834,-3.60715562,-1,-0.9999609192827179
3.40846122e+02,3.59999973,-6.59539239e-10,3.69274929,1.71514796,-5.84509869,7.50981423e-01,4.13274931e-05,5.72108617,-3.60630420,-1,-0.9999594193115625
3.42291755e+02,3.59999973,-6.57839599e-10,3.69935409,1.71451762,-5.84509869,7.50981423e-01,4.13274931e-05,5.72137400,-3.60545279,-1,-0.9999579193404072
3.47159896e+02,3.59999973,-7.97588515e-10,3.70467136,1.71326625,-5.84509868,7.50981422e-01,4.13274932e-05,5.72233503,-3.60258283,-1,-0.9999528682167264
3.66172921e+02,3.59999971,-8.96452187e-10,3.70497167,1.70949145,-5.84509867,7.50981422e-01,4.13274932e-05,5.72603421,-3.59150007,-1,-0.9999331405340601
3.86224861e+02,3.59999969,-8.78691171e-10,3.70530322,1.70561218,-5.84509867,7.50981422e-01,4.13274932e-05,5.72983765,-3.58010466,-1,-0.999912334885871
4.07337137e+02,3.59999967,-8.59473575e-10,3.70564266,1.70162927,-5.84509867,7.50981422e-01,4.13274932e-05,5.73374258,-3.56840414,-1,-0.9998904290459907
4.29529783e+02,3.59999966,-8.38856065e-10,3.70599074,1.69754231,-5.84509867,7.50981422e-01,4.13274932e-05,5.73774941,-3.55639780,-1,-0.9998674022273855
4.52986425e+02,3.59999964,-8.17736899e-10,3.70634851,1.69333860,-5.84509867,7.50981422e-01,4.13274932e-05,5.74187084,-3.54404819,-1,-0.9998430639019591
4.77633345e+02,3.59999962,-7.96494505e-10,3.70671492,1.68903050,-5.84509867,7.50981422e-01,4.13274932e-05,5.74609449,-3.53139041,-1,-0.9998174905586084
5.03549206e+02,3.59999960,-7.75240032e-10,3.70709010,1.68461638,-5.84509867,7.50981422e-01,4.13274932e-05,5.75042197,-3.51842202,-1,-0.9997906005775649
5.30917609e+02,3.59999958,-7.54042706e-10,3.70747479,1.68008786,-5.84509867,7.50981422e-01,4.13274932e-05,5.75486178,-3.50511487,-1,-0.999762203456672
5.59706571e+02,3.59999956,-7.32938018e-10,3.70786826,1.67545388,-5.84509867,7.50981422e-01,4.13274932e-05,5.75940512,-3.49149833,-1,-0.9997323323811
5.89995178e+02,3.59999953,-7.11957094e-10,3.70827051,1.67071471,-5.84509867,7.50981422e-01,4.13274932e-05,5.76405179,-3.47757053,-1,-0.9997009052921809
6.21868639e+02,3.59999951,-6.91129171e-10,3.70868155,1.66587064,-5.84509867,7.50981422e-01,4.13274932e-05,5.76880138,-3.46333504,-1,-0.9996678337780961
6.55413329e+02,3.59999949,-6.70481607e-10,3.70910126,1.66092254,-5.84509867,7.50981422e-01,4.13274932e-05,5.77365341,-3.44879234,-1,-0.9996330282172
6.90717462e+02,3.59999947,-6.50041780e-10,3.70952958,1.65587175,-5.84509867,7.50981422e-01,4.13274932e-05,5.77860602,-3.43394853,-1,-0.999596397079723
7.27871281e+02,3.59999944,-6.29835295e-10,3.70996689,1.65071977,-5.84509867,7.50981422e-01,4.13274932e-05,5.78365775,-3.41880723,-1,-0.9995578467306298
7.66968278e+02,3.59999942,-6.09718369e-10,3.71041618,1.64546750,-5.84509867,7.50981422e-01,4.13274932e-05,5.78880799,-3.40336855,-1,-0.9995172801637621
8.08097292e+02,3.59999939,-5.90132557e-10,3.71086821,1.64011831,-5.84509867,7.50981422e-01,4.13274933e-05,5.79405327,-3.38764451,-1,-0.9994746052008582
8.51352080e+02,3.59999937,-5.70736469e-10,3.71132853,1.63467410,-5.84509867,7.50981422e-01,4.13274933e-05,5.79939200,-3.37163988,-1,-0.9994297245607991
8.96832812e+02,3.59999934,-5.51727537e-10,3.71179592,1.62913696,-5.84509867,7.50981422e-01,4.13274933e-05,5.80482207,-3.35536267,-1,-0.9993825343084157
9.44676540e+02,3.59999932,-5.33079752e-10,3.71227110,1.62350832,-5.84509867,7.50981422e-01,4.13274933e-05,5.81034205,-3.33881466,-1,-0.9993328922402255
9.95051707e+02,3.59999929,-5.14725450e-10,3.71275318,1.61778817,-5.84509867,7.50981422e-01,4.13274933e-05,5.81595232,-3.32199655,-1,-0.9992806235818278
1.04799497e+03,3.59999926,-4.96716727e-10,3.71324163,1.61198213,-5.84509867,7.50981422e-01,4.13274934e-05,5.82164702,-3.30492408,-1,-0.9992256902983667
1.10362054e+03,3.59999924,-4.79076611e-10,3.71373699,1.60609262,-5.84509867,7.50981422e-01,4.13274934e-05,5.82742381,-3.28760416,-1,-0.9991679738859027
1.16218401e+03,3.59999921,-4.61797971e-10,3.71424131,1.60011790,-5.84509867,7.50981422e-01,4.13274935e-05,5.83328476,-3.27003164,-1,-0.999107209144259
1.22373634e+03,3.59999918,-4.44986428e-10,3.71474897,1.59406364,-5.84509867,7.50981422e-01,4.13274935e-05,5.83922408,-3.25222230,-1,-0.9990433431979613
1.28839926e+03,3.59999915,-4.28557572e-10,3.71526213,1.58793262,-5.84509867,7.50981422e-01,4.13274936e-05,5.84523884,-3.23418737,-1,-0.9989762497414477
1.35647284e+03,3.59999913,-4.12537239e-10,3.71578044,1.58172351,-5.84509867,7.50981422e-01,4.13274938e-05,5.85133103,-3.21592082,-1,-0.9989056174257487
1.42793093e+03,3.59999910,-3.96717516e-10,3.71630613,1.57544150,-5.84509867,7.50981422e-01,4.13274939e-05,5.85749499,-3.19744157,-1,-0.9988314733837852
1.50315232e+03,3.59999907,-3.81703042e-10,3.71683384,1.56908734,-5.84509867,7.50981422e-01,4.13274942e-05,5.86372995,-3.17874712,-1,-0.9987534245876767
1.58212933e+03,3.59999904,-3.66917863e-10,3.71736485,1.56266668,-5.84509867,7.50981422e-01,4.13274945e-05,5.87003039,-3.15985507,-1,-0.9986714790060974
1.66514386e+03,3.59999901,-3.51879073e-10,3.71790415,1.55617504,-5.84509867,7.50981422e-01,4.13274949e-05,5.87640098,-3.14075061,-1,-0.9985853441430483
1.75244823e+03,3.59999898,-3.37641145e-10,3.71844614,1.54961492,-5.84509867,7.50981422e-01,4.13274954e-05,5.88283947,-3.12144191,-1,-0.9984947581943772
1.84419952e+03,3.59999895,-3.24095327e-10,3.71899183,1.54299226,-5.84509867,7.50981422e-01,4.13274962e-05,5.88933991,-3.10194613,-1,-0.9983995581757933
1.94061277e+03,3.59999892,-3.10968292e-10,3.71954587,1.53631007,-5.84509867,7.50981422e-01,4.13274972e-05,5.89580156,-3.08244697,-1,-0.9982995209644175
2.04194536e+03,3.59999889,-2.98669643e-10,3.72009836,1.52957216,-5.84509867,7.50981422e-01,4.13274985e-05,5.90238492,-3.06266577,-1,-0.9981943795059034
2.14844814e+03,3.59999886,-2.86960197e-10,3.72065615,1.52278228,-5.84509867,7.50981422e-01,4.13275003e-05,5.90904082,-3.04269538,-1,-0.9980838735213529
2.26036631e+03,3.59999883,-2.75305933e-10,3.72121376,1.51594291,-5.84509867,7.50981422e-01,4.13275027e-05,5.91575189,-3.02256590,-1,-0.9979677485942389
2.37801124e+03,3.59999879,-2.63881700e-10,3.72177321,1.50905274,-5.84509867,7.50981422e-01,4.13275060e-05,5.92251612,-3.00227639,-1,-0.9978456816508499
2.50157661e+03,3.59999876,-2.52809789e-10,3.72233466,1.50211364,-5.84509867,7.50981422e-01,4.13275104e-05,5.92932995,-2.98183983,-1,-0.9977174717311821
2.63138533e+03,3.59999873,-2.42176839e-10,3.72289926,1.49512898,-5.84509867,7.50981422e-01,4.13275163e-05,5.93618938,-2.96126574,-1,-0.9975827837877608
2.76780757e+03,3.59999870,-2.31906860e-10,3.72346608,1.48809932,-5.84509867,7.50981422e-01,4.13275243e-05,5.94309490,-2.94055628,-1,-0.9974412337367125
2.91123653e+03,3.59999867,-2.22007451e-10,3.72403530,1.48102603,-5.84509867,7.50981422e-01,4.13275352e-05,5.95004445,-2.91971433,-1,-0.9972924135985165
3.06189666e+03,3.59999863,-2.12438671e-10,3.72460606,1.47391035,-5.84509867,7.50981422e-01,4.13275498e-05,5.95703722,-2.89874204,-1,-0.9971360904865925
3.22017109e+03,3.59999860,-2.03288796e-10,3.72517547,1.46675668,-5.84509867,7.50981422e-01,4.13275695e-05,5.96406739,-2.87765613,-1,-0.9969718668699289
3.38645691e+03,3.59999857,-1.94426163e-10,3.72574844,1.45956462,-5.84509867,7.50981422e-01,4.13275962e-05,5.97113580,-2.85645524,-1,-0.9967993307327886
3.56119121e+03,3.59999854,-1.85959949e-10,3.72632768,1.45233516,-5.84509867,7.50981422e-01,4.13276322e-05,5.97824126,-2.83514329,-1,-0.996618028555923
3.74474655e+03,3.59999850,-1.77806967e-10,3.72690478,1.44507151,-5.84509867,7.50981422e-01,4.13276809e-05,5.98538129,-2.81372846,-1,-0.9964275737756232
3.93759311e+03,3.59999847,-1.69964479e-10,3.72748254,1.43777502,-5.84509867,7.50981422e-01,4.13277466e-05,5.99255472,-2.79221314,-1,-0.9962274785388605
4.14026889e+03,3.59999844,-1.62348920e-10,3.72806799,1.43044397,-5.84509867,7.50981422e-01,4.13278354e-05,5.99974732,-2.77057360,-1,-0.9960171846234017
4.35318422e+03,3.59999840,-1.55129449e-10,3.72864912,1.42308352,-5.84509867,7.50981422e-01,4.13279544e-05,6.00688974,-2.74874789,-1,-0.9957962662758474
4.57685134e+03,3.59999837,-1.48224980e-10,3.72923181,1.41569648,-5.84509867,7.50981422e-01,4.13281083e-05,6.01397654,-2.72673192,-1,-0.9955641920022257
4.81181810e+03,3.59999834,-1.41585550e-10,3.72981555,1.40828450,-5.84509867,7.50981422e-01,4.13283014e-05,6.02100989,-2.70452392,-1,-0.995320393360064
5.05864823e+03,3.59999830,-1.35241938e-10,3.73039959,1.40085025,-5.84509867,7.50981421e-01,4.13285387e-05,6.02799551,-2.68212032,-1,-0.995064285429995
5.31795422e+03,3.59999827,-1.29130088e-10,3.73098590,1.39339564,-5.84509867,7.50981421e-01,4.13288256e-05,6.03493732,-2.65951588,-1,-0.994795232699871
5.59028030e+03,3.59999823,-1.23115549e-10,3.73157297,1.38592079,-5.84509867,7.50981421e-01,4.13291629e-05,6.04184329,-2.63670637,-1,-0.9945126704832867
5.87643226e+03,3.59999820,-1.17468243e-10,3.73216419,1.37842733,-5.84509867,7.50981421e-01,4.13295544e-05,6.04871756,-2.61369375,-1,-0.9942157627023738
6.17698698e+03,3.59999816,-1.12142635e-10,3.73275448,1.37092150,-5.84509867,7.50981421e-01,4.13300067e-05,6.05555441,-2.59048255,-1,-0.9939039107934855
6.49286922e+03,3.59999813,-1.07045878e-10,3.73333958,1.36340806,-5.84509867,7.50981421e-01,4.13305262e-05,6.06235718,-2.56708271,-1,-0.9935761552369335
6.82457698e+03,3.59999810,-1.02177337e-10,3.73392494,1.35588883,-5.84509867,7.50981421e-01,4.13310311e-05,6.06913287,-2.54348777,-1,-0.9932319793139965
7.17317514e+03,3.59999806,-9.75194247e-11,3.73450818,1.34836669,-5.84509867,7.50981420e-01,4.13316650e-05,6.07589035,-2.51970839,-1,-0.9928702781181845
7.53950850e+03,3.59999803,-9.30812668e-11,3.73509276,1.34084386,-5.84509867,7.50981420e-01,4.13321822e-05,6.08263004,-2.49574300,-1,-0.9924901750953291
7.92427155e+03,3.59999799,-8.88439652e-11,3.73567682,1.33332397,-5.84509867,7.50981420e-01,4.13327595e-05,6.08935720,-2.47160431,-1,-0.9920909496510832
8.32881324e+03,3.59999796,-8.48025133e-11,3.73625996,1.32581039,-5.84509867,7.50981420e-01,4.13334051e-05,6.09607942,-2.44729682,-1,-0.9916712021313924
8.75395453e+03,3.59999792,-8.09456595e-11,3.73684522,1.31830596,-5.84509867,7.50981420e-01,4.13341256e-05,6.10280256,-2.42283054,-1,-0.9912300807181811
9.20058383e+03,3.59999789,-7.72772212e-11,3.73742639,1.31081576,-5.84509867,7.50981419e-01,4.13349172e-05,6.10952999,-2.39822731,-1,-0.9907666636080773
9.67031211e+03,3.59999785,-7.37773216e-11,3.73800600,1.30334379,-5.84509867,7.50981419e-01,4.13357838e-05,6.11626938,-2.37349552,-1,-0.9902792792782726
1.01641309e+04,3.59999782,-7.05456208e-11,3.73858442,1.29589669,-5.84509867,7.50981419e-01,4.13367415e-05,6.12302478,-2.34866542,-1,-0.9897668989293419
1.06835186e+04,3.59999778,-6.74083766e-11,3.73916390,1.28848004,-5.84509867,7.50981418e-01,4.13377965e-05,6.12980409,-2.32376788,-1,-0.9892279885914902
1.12296638e+04,3.59999775,-6.44093697e-11,3.73974221,1.28109725,-5.84509867,7.50981418e-01,4.13389604e-05,6.13661510,-2.29883199,-1,-0.9886613149982417
1.18040515e+04,3.59999771,-6.15482100e-11,3.74031388,1.27375540,-5.84509867,7.50981418e-01,4.13402260e-05,6.14346448,-2.27390196,-1,-0.9880653373317225
1.24083124e+04,3.59999767,-5.88265623e-11,3.74088281,1.26646074,-5.84509867,7.50981417e-01,4.13415940e-05,6.15038567,-2.24895935,-1,-0.9874383635975168
1.30445712e+04,3.59999764,-5.62411839e-11,3.74144662,1.25922140,-5.84509867,7.50981417e-01,4.13430955e-05,6.15732541,-2.22416813,-1,-0.9867781892328388
1.37145289e+04,3.59999760,-5.37939680e-11,3.74200867,1.25204607,-5.84509867,7.50981416e-01,4.13447169e-05,6.16432852,-2.19946465,-1,-0.986083049300851
1.44200904e+04,3.59999756,-5.14814916e-11,3.74256384,1.24494425,-5.84509867,7.50981416e-01,4.13464412e-05,6.17131843,-2.17500042,-1,-0.9853509673005647
1.51633455e+04,3.59999753,-4.92913322e-11,3.74311496,1.23792625,-5.84509867,7.50981415e-01,4.13483041e-05,6.17829916,-2.15070596,-1,-0.984579774881008
1.59462686e+04,3.59999749,-4.72189236e-11,3.74365843,1.23100305,-5.84509867,7.50981414e-01,4.13502841e-05,6.18528292,-2.12643940,-1,-0.9837674234288407
1.67716216e+04,3.59999745,-4.52676742e-11,3.74419420,1.22418185,-5.84509867,7.50981414e-01,4.13524044e-05,6.19201426,-2.10243800,-1,-0.9829110472303346
1.76414599e+04,3.59999741,-4.34251736e-11,3.74472279,1.21747055,-5.84509867,7.50981413e-01,4.13546752e-05,6.19851978,-2.07840885,-1,-0.9820085136275378
1.85581118e+04,3.59999737,-4.16866601e-11,3.74524432,1.21087222,-5.84509867,7.50981412e-01,4.13570492e-05,6.20470011,-2.05421330,-1,-0.98105740680479
1.95238267e+04,3.59999733,-4.00403328e-11,3.74576085,1.20438670,-5.84509867,7.50981411e-01,4.13595979e-05,6.21052401,-2.02964482,-1,-0.9800553928121072
2.05414159e+04,3.59999729,-3.84976461e-11,3.74627653,1.19800933,-5.84509867,7.50981410e-01,4.13622359e-05,6.21588187,-2.00474717,-1,-0.9789995546789243
2.16123423e+04,3.59999725,-3.70346161e-11,3.74678493,1.19173968,-5.84509867,7.50981410e-01,4.13650880e-05,6.22111247,-1.97907936,-1,-0.9778883745180574
2.27401307e+04,3.59999721,-3.56494241e-11,3.74729537,1.18557396,-5.84509867,7.50981409e-01,4.13680496e-05,6.22623862,-1.95274279,-1,-0.9767181950400506
2.39279452e+04,3.59999717,-3.43397404e-11,3.74780561,1.17951228,-5.84509867,7.50981408e-01,4.13711345e-05,6.23139366,-1.92568653,-1,-0.9754857332133651
2.51784980e+04,3.59999713,-3.31042277e-11,3.74831989,1.17355747,-5.84509867,7.50981407e-01,4.13743629e-05,6.23667909,-1.89797906,-1,-0.9741881748923857
2.64950333e+04,3.59999709,-3.19346627e-11,3.74883569,1.16771585,-5.84509867,7.50981406e-01,4.13776156e-05,6.24218007,-1.86964186,-1,-0.9728221539347917
2.78815665e+04,3.59999705,-3.08344323e-11,3.74936158,1.16199647,-5.84509867,7.50981404e-01,4.13809525e-05,6.24794026,-1.84068088,-1,-0.971383504010555
2.93419537e+04,3.59999700,-2.98031924e-11,3.74989654,1.15641190,-5.84509867,7.50981403e-01,4.13842704e-05,6.25397369,-1.81109806,-1,-0.9698682240773833
3.08802316e+04,3.59999696,-2.88352333e-11,3.75043933,1.15097554,-5.84509867,7.50981402e-01,4.13874457e-05,6.26029461,-1.78086310,-1,-0.9682721257046287
3.25007010e+04,3.59999691,-2.79315360e-11,3.75099484,1.14570380,-5.84509867,7.50981401e-01,4.13930765e-05,6.26694266,-1.74987310,-1,-0.9665907464347072
3.42084402e+04,3.59999686,-2.70940567e-11,3.75156404,1.14061615,-5.84509867,7.50981399e-01,4.13979573e-05,6.27390963,-1.71815089,-1,-0.9648188170855245
3.60090048e+04,3.59999682,-2.63218529e-11,3.75214897,1.13573588,-5.84509867,7.50981398e-01,4.14023483e-05,6.28117484,-1.68580365,-1,-0.9629505732343328
3.79068849e+04,3.59999677,-2.56150997e-11,3.75275155,1.13109045,-5.84509867,7.50981397e-01,4.14061785e-05,6.28876876,-1.65274143,-1,-0.960981356008178
3.99074165e+04,3.59999672,-2.49753028e-11,3.75337298,1.12671418,-5.84509867,7.50981396e-01,4.14094082e-05,6.29670528,-1.61891639,-1,-0.9589056288385919
4.20162357e+04,3.59999666,-2.44076370e-11,3.75401821,1.12264867,-5.84509867,7.50981395e-01,4.14120310e-05,6.30500124,-1.58428556,-1,-0.9567175437770088
4.42390375e+04,3.59999661,-2.39153638e-11,3.75468959,1.11894679,-5.84509868,7.50981394e-01,4.14140727e-05,6.31368146,-1.54880723,-1,-0.9544111917609421
4.65813838e+04,3.59999656,-2.35051671e-11,3.75539087,1.11567658,-5.84509868,7.50981394e-01,4.14155891e-05,6.32276596,-1.51244964,-1,-0.9519808018308408
4.90482260e+04,3.59999650,-2.31872496e-11,3.75613236,1.11291866,-5.84509868,7.50981394e-01,4.14166560e-05,6.33227345,-1.47518647,-1,-0.9494212364745017
5.16434245e+04,3.59999644,-2.29732926e-11,3.75690686,1.11078138,-5.84509868,7.50981394e-01,4.14173611e-05,6.34222429,-1.43699771,-1,-0.9467284901880051
5.43679223e+04,3.59999638,-2.28814624e-11,3.75772676,1.10939675,-5.84509868,7.50981394e-01,4.14177915e-05,6.35263205,-1.39788527,-1,-0.9439015845260612
5.72188516e+04,3.59999631,-2.29400357e-11,3.75859680,1.10893192,-5.84509868,7.50981395e-01,4.14180260e-05,6.36349614,-1.35789608,-1,-0.9409434950829455
6.01864675e+04,3.59999624,-2.31864709e-11,3.75952434,1.10958765,-5.84509868,7.50981395e-01,4.14181372e-05,6.37481863,-1.31715762,-1,-0.9378643330479515
6.32457145e+04,3.59999617,-2.36604596e-11,3.76051915,1.11153394,-5.84509868,7.50981395e-01,4.14181839e-05,6.38652982,-1.27592670,-1,-0.9346900957020506
6.63618313e+04,3.59999610,-2.44153884e-11,3.76159193,1.11496179,-5.84509868,7.50981396e-01,4.14182001e-05,6.39854760,-1.23458817,-1,-0.9314568509458249
6.94871455e+04,3.59999602,-2.54950985e-11,3.76275409,1.11991919,-5.84509868,7.50981397e-01,4.14182045e-05,6.41074418,-1.19365704,-1,-0.9282140630796231
7.25820120e+04,3.59999594,-2.69124203e-11,3.76402038,1.12621543,-5.84509868,7.50981398e-01,4.14182054e-05,6.42299935,-1.15350005,-1,-0.9250028673752952
7.56418800e+04,3.59999585,-2.86451512e-11,3.76542275,1.13339705,-5.84509868,7.50981399e-01,4.14182055e-05,6.43532722,-1.11406715,-1,-0.9218279856873743
7.87257123e+04,3.59999576,-3.05987854e-11,3.76700087,1.14070878,-5.84509869,7.50981400e-01,4.14182054e-05,6.44795665,-1.07451442,-1,-0.9186282389342826
8.19465800e+04,3.59999566,-3.25985696e-11,3.76883073,1.14714988,-5.84509869,7.50981402e-01,4.14182052e-05,6.46133495,-1.03342380,-1,-0.9152863059228109
8.54002364e+04,3.59999554,-3.44167402e-11,3.77100167,1.15177587,-5.84509870,7.50981405e-01,4.14182049e-05,6.47580934,-9.89694080e-01,-1,-0.9117028341976479
8.90970060e+04,3.59999541,-3.59087146e-11,3.77357060,1.15420213,-5.84509870,7.50981409e-01,4.14182044e-05,6.49132909,-9.43383330e-01,-1,-0.907867111183615
9.29935826e+04,3.59999527,-3.70529064e-11,3.77656441,1.15452114,-5.84509872,7.50981415e-01,4.14182036e-05,6.50762504,-8.95235443e-01,-1,-0.9038240708652349
9.70414260e+04,3.59999511,-3.78683444e-11,3.78000646,1.15290103,-5.84509874,7.50981426e-01,4.14182024e-05,6.52439606,-8.46009136e-01,-1,-0.8996240779615436
1.01187400e+05,3.59999496,-3.83690539e-11,3.78395897,1.14938922,-5.84509878,7.50981444e-01,4.14182003e-05,6.54133652,-7.96486516e-01,-1,-0.8953222659450788
1.05375447e+05,3.59999480,-3.85830154e-11,3.78846031,1.14407702,-5.84509885,7.50981478e-01,4.14181964e-05,6.55816964,-7.47413456e-01,-1,-0.8909767994973588
1.09501021e+05,3.59999464,-3.85227765e-11,3.79364767,1.13681414,-5.84509901,7.50981550e-01,4.14181881e-05,6.57447411,-7.00035760e-01,-1,-0.8866961542718905
1.13375932e+05,3.59999449,-3.81623598e-11,3.79973687,1.12721366,-5.84509962,7.50981739e-01,4.14181661e-05,6.58951841,-6.56428131e-01,-1,-0.8826755939156191
1.17032038e+05,3.59999435,-3.75919614e-11,3.80643221,1.11603493,-5.84510163,7.50982218e-01,4.14181109e-05,6.60345004,-6.16067504e-01,-1,-0.8788820629566045
1.20514814e+05,3.59999422,-3.68994552e-11,3.81353159,1.10379675,-5.84510682,7.50983237e-01,4.14179938e-05,6.61647556,-5.78313139e-01,-1,-0.8752683770899167
1.23870992e+05,3.59999410,-3.61264569e-11,3.82090691,1.09083450,-5.84511437,7.50984714e-01,4.14178246e-05,6.62879479,-5.42543715e-01,-1,-0.8717860477627681
1.27235497e+05,3.59999398,-3.53310615e-11,3.82836978,1.07762475,-5.84512776,7.50987959e-01,4.14174696e-05,6.64092860,-5.07290613e-01,-1,-0.8682950784420594
1.30642022e+05,3.59999386,-3.45326236e-11,3.83587751,1.06428405,-5.84520633,7.51008239e-01,4.14153442e-05,6.65299030,-4.72201320e-01,-1,-0.8647605096822486
