star_age,star_mass,star_mdot,log_Teff,log_R,log_surf_z,surface_h1,surface_he3,log_center_T,log_center_Rho,phase,x
5.91503219e+01,5.49992268e+01,-1.65200608e-05,3.91037495,2.51058327,-5.84509868,7.50981423e-01,4.13274931e-05,6.23014889,-3.70468473,-1,-1.0
6.18099956e+01,5.49991821e+01,-1.65861844e-05,3.91182023,2.50865442,-5.84509868,7.50981423e-01,4.13274931e-05,6.23268168,-3.69722271,-1,-0.9998755628324956
6.44696692e+01,5.49991374e+01,-1.66523081e-05,3.91326551,2.50672556,-5.84509868,7.50981423e-01,4.13274931e-05,6.23521448,-3.68976070,-1,-0.9997511256696698
6.71293429e+01,5.49990928e+01,-1.67184318e-05,3.91471079,2.50479671,-5.84509869,7.50981423e-01,4.13274931e-05,6.23774727,-3.68229868,-1,-0.9996266885021655
6.97890166e+01,5.49990481e+01,-1.67845554e-05,3.91615608,2.50286786,-5.84509869,7.50981423e-01,4.13274931e-05,6.24028006,-3.67483667,-1,-0.9995022513346611
7.28307405e+01,5.49989966e+01,-1.68274268e-05,3.91782775,2.50040923,-5.84509869,7.50981423e-01,4.13274930e-05,6.24314155,-3.66641858,-1,-0.999359939326069
7.59626753e+01,5.49989435e+01,-1.68648077e-05,3.91955288,2.49782549,-5.84509869,7.50981423e-01,4.13274930e-05,6.24608065,-3.65777474,-1,-0.9992134066535384
7.90946102e+01,5.49988904e+01,-1.69021887e-05,3.92127801,2.49524175,-5.84509869,7.50981424e-01,4.13274930e-05,6.24901974,-3.64913090,-1,-0.9990668739763291
8.22265450e+01,5.49988373e+01,-1.69395696e-05,3.92300314,2.49265802,-5.84509869,7.50981424e-01,4.13274930e-05,6.25195884,-3.64048706,-1,-0.9989203413037985
8.56058806e+01,5.49987799e+01,-1.69619246e-05,3.92487081,2.48975862,-5.84509869,7.50981424e-01,4.13274930e-05,6.25510459,-3.63124095,-1,-0.9987622335817457
8.91975746e+01,5.49987189e+01,-1.69713818e-05,3.92686083,2.48658827,-5.84509869,7.50981424e-01,4.13274930e-05,6.25842774,-3.62147789,-1,-0.9985941903259499
9.27892687e+01,5.49986579e+01,-1.69808390e-05,3.92885085,2.48341793,-5.84509869,7.50981424e-01,4.13274930e-05,6.26175088,-3.61171482,-1,-0.9984261470654754
9.65570403e+01,5.49985940e+01,-1.69756213e-05,3.93093880,2.48002610,-5.84509869,7.50981424e-01,4.13274930e-05,6.26521235,-3.60155033,-1,-0.9982498657322775
1.00531878e+02,5.49985267e+01,-1.69531460e-05,3.93314192,2.47637382,-5.84509869,7.50981424e-01,4.13274930e-05,6.26883649,-3.59091377,-1,-0.9980638964742148
1.04506715e+02,5.49984594e+01,-1.69306707e-05,3.93534504,2.47272153,-5.84509869,7.50981424e-01,4.13274930e-05,6.27246064,-3.58027721,-1,-0.9978779272489028
1.08806247e+02,5.49983870e+01,-1.68864154e-05,3.93772302,2.46867301,-5.84509869,7.50981424e-01,4.13274930e-05,6.27632995,-3.56892811,-1,-0.997676766638985
1.13125533e+02,5.49983143e+01,-1.68408350e-05,3.94011164,2.46460038,-5.84509869,7.50981424e-01,4.13274930e-05,6.28021419,-3.55753565,-1,-0.9974746818059915
1.17684593e+02,5.49982381e+01,-1.67813669e-05,3.94262415,2.46024690,-5.84509869,7.50981424e-01,4.13274930e-05,6.28427124,-3.54564181,-1,-0.9972613787557405
1.22326585e+02,5.49981605e+01,-1.67170954e-05,3.94517952,2.45579629,-5.84509869,7.50981424e-01,4.13274930e-05,6.28838806,-3.53357455,-1,-0.997044195596747
1.27199723e+02,5.49980797e+01,-1.66407735e-05,3.94784895,2.45108717,-5.84509869,7.50981424e-01,4.13274930e-05,6.29266363,-3.52104665,-1,-0.9968161978955334
1.32150933e+02,5.49979977e+01,-1.65603814e-05,3.95055690,2.44629073,-5.84509869,7.50981424e-01,4.13274930e-05,6.29699282,-3.50836316,-1,-0.9965845474685959
1.37371361e+02,5.49979121e+01,-1.64671987e-05,3.95339137,2.44120759,-5.84509869,7.50981424e-01,4.13274930e-05,6.30149906,-3.49516758,-1,-0.9963403012388872
1.42673454e+02,5.49978254e+01,-1.63732526e-05,3.95626235,2.43604108,-5.84509869,7.50981424e-01,4.13274930e-05,6.30605638,-3.48182416,-1,-0.9960922341790952
1.48247984e+02,5.49977350e+01,-1.62830858e-05,3.95925126,2.43060373,-5.84509869,7.50981424e-01,4.13274930e-05,6.31077882,-3.46800269,-1,-0.9958314207103722
1.53894646e+02,5.49976437e+01,-1.61906357e-05,3.96226922,2.42510011,-5.84509870,7.50981425e-01,4.13274929e-05,6.31554242,-3.45406262,-1,-0.9955672324285034
1.59848462e+02,5.49975486e+01,-1.60884631e-05,3.96541088,2.41931427,-5.84509870,7.50981425e-01,4.13274929e-05,6.32048134,-3.43961755,-1,-0.9952886734462936
1.65802277e+02,5.49974534e+01,-1.59862905e-05,3.96855253,2.41352842,-5.84509871,7.50981425e-01,4.13274928e-05,6.32542026,-3.42517249,-1,-0.9950101145108703
1.72119082e+02,5.49973542e+01,-1.58267590e-05,3.97183818,2.40742131,-5.84509871,7.50981425e-01,4.13274928e-05,6.33056889,-3.41012219,-1,-0.9947145724968716
1.78514290e+02,5.49972541e+01,-1.56667745e-05,3.97515241,2.40124962,-5.84509871,7.50981425e-01,4.13274929e-05,6.33575998,-3.39495033,-1,-0.9944153622707744
1.85159178e+02,5.49971514e+01,-1.55092563e-05,3.97855684,2.39487382,-5.84509871,7.50981425e-01,4.13274928e-05,6.34108535,-3.37939438,-1,-0.9941044703590697
1.92004904e+02,5.49970467e+01,-1.53507990e-05,3.98202816,2.38834609,-5.84509871,7.50981425e-01,4.13274928e-05,6.34651200,-3.36355018,-1,-0.9937841819143063
1.99016359e+02,5.49969403e+01,-1.51911316e-05,3.98555316,2.38169632,-5.84509871,7.50981425e-01,4.13274928e-05,6.35202021,-3.34747461,-1,-0.9934561395682528
2.06250074e+02,5.49968317e+01,-1.50289872e-05,3.98914714,2.37488942,-5.84509871,7.50981426e-01,4.13274928e-05,6.35763380,-3.33110152,-1,-0.9931176984259676
2.13756341e+02,5.49967205e+01,-1.48863824e-05,3.99281554,2.36791121,-5.84509871,7.50981426e-01,4.13274928e-05,6.36336293,-3.31440745,-1,-0.9927665054942889
2.21413808e+02,5.49966079e+01,-1.47453175e-05,3.99652267,2.36084387,-5.84509872,7.50981426e-01,4.13274927e-05,6.36915314,-3.29754579,-1,-0.9924082384242576
2.29339013e+02,5.49964927e+01,-1.46003062e-05,4.00029657,2.35362296,-5.84509873,7.50981427e-01,4.13274926e-05,6.37504930,-3.28039487,-1,-0.9920374447956664
2.37442533e+02,5.49963792e+01,-1.41818306e-05,4.00411628,2.34629831,-5.84509873,7.50981428e-01,4.13274926e-05,6.38101967,-3.26304266,-1,-0.9916583084092686
2.45740707e+02,5.49962676e+01,-1.34581463e-05,4.00798584,2.33886079,-5.84509873,7.50981428e-01,4.13274926e-05,6.38707080,-3.24547150,-1,-0.9912700648183279
2.54358403e+02,5.49961693e+01,-1.18787526e-05,4.01192807,2.33125759,-5.84509873,7.50981428e-01,4.13274926e-05,6.39324191,-3.22758182,-1,-0.9908668718700148
2.63192495e+02,5.49960803e+01,-1.03526708e-05,4.01591473,2.32355210,-5.84509873,7.50981428e-01,4.13274926e-05,6.39948756,-3.20950036,-1,-0.990453554482264
2.72275526e+02,5.49960011e+01,-8.97899998e-06,4.01994682,2.31574072,-5.84509874,7.50981428e-01,4.13274925e-05,6.40581051,-3.19122837,-1,-0.990028590077798
2.81552414e+02,5.49959293e+01,-7.75915639e-06,4.02401148,2.30785270,-5.84509875,7.50981429e-01,4.13274924e-05,6.41218946,-3.17282288,-1,-0.9895945557577325
2.91229044e+02,5.49958733e+01,-6.53916233e-06,4.02813649,2.29982118,-5.84509876,7.50981431e-01,4.13274923e-05,6.41867239,-3.15418114,-1,-0.9891418188568908
3.01055123e+02,5.49958252e+01,-5.14383699e-06,4.03228595,2.29173206,-5.84509876,7.50981432e-01,4.13274922e-05,6.42519757,-3.13544059,-1,-0.9886820897410845
3.11139947e+02,5.49957904e+01,-3.46190442e-06,4.03647747,2.28354379,-5.84509876,7.50981432e-01,4.13274922e-05,6.43179548,-3.11653040,-1,-0.9882102548188757
3.21573224e+02,5.49957730e+01,-1.95214878e-06,4.04071666,2.27524001,-5.84509876,7.50981432e-01,4.13274922e-05,6.43847752,-3.09743856,-1,-0.9877221169553216
3.32287305e+02,5.49957691e+01,-5.42596082e-07,4.04498891,2.26685414,-5.84509876,7.50981432e-01,4.13274922e-05,6.44521687,-3.07822526,-1,-0.9872208412191091
3.43322788e+02,5.49957683e+01,-7.00214026e-08,4.04929081,2.25838993,-5.84509878,7.50981434e-01,4.13274919e-05,6.45200615,-3.05891505,-1,-0.986704528166661
3.54642816e+02,5.49957675e+01,-7.07564499e-08,4.05361527,2.24986389,-5.84509881,7.50981438e-01,4.13274916e-05,6.45883136,-3.03953274,-1,-0.9861749022127742
3.66280235e+02,5.49957667e+01,-7.14960327e-08,4.05796306,2.24127282,-5.84509883,7.50981440e-01,4.13274913e-05,6.46569201,-3.02007409,-1,-0.9856304266038218
3.78276885e+02,5.49957658e+01,-7.24651760e-08,4.06234327,2.23259478,-5.84509883,7.50981440e-01,4.13274913e-05,6.47259997,-3.00047471,-1,-0.9850691437872336
3.90583702e+02,5.49957649e+01,-7.34468676e-08,4.06674864,2.22384911,-5.84509883,7.50981441e-01,4.13274912e-05,6.47954234,-2.98075094,-1,-0.9844933493021902
4.03236353e+02,5.49957640e+01,-7.43682405e-08,4.07117742,2.21503704,-5.84509882,7.50981444e-01,4.13274909e-05,6.48651213,-2.96089591,-1,-0.9839013744099839
4.16266563e+02,5.49957630e+01,-7.52204555e-08,4.07562530,2.20616492,-5.84509882,7.50981448e-01,4.13274905e-05,6.49349757,-2.94090456,-1,-0.9832917348047995
4.29627058e+02,5.49957620e+01,-7.59527682e-08,4.08008655,2.19724943,-5.84509883,7.50981453e-01,4.13274900e-05,6.50049075,-2.92078284,-1,-0.9826666422777512
4.43518029e+02,5.49957609e+01,-7.66862442e-08,4.08456816,2.18826824,-5.84509884,7.50981457e-01,4.13274895e-05,6.50750055,-2.90040009,-1,-0.9820167305667298
4.57677012e+02,5.49957598e+01,-7.75646923e-08,4.08906715,2.17924097,-5.84509885,7.50981462e-01,4.13274890e-05,6.51453759,-2.87983241,-1,-0.9813542794776121
4.72215630e+02,5.49957587e+01,-7.85506854e-08,4.09358884,2.17015256,-5.84509885,7.50981467e-01,4.13274885e-05,6.52161255,-2.85900730,-1,-0.9806740665464738
4.87158198e+02,5.49957575e+01,-7.94673475e-08,4.09813081,2.16100813,-5.84509887,7.50981472e-01,4.13274880e-05,6.52872833,-2.83791659,-1,-0.9799749541564231
5.02513984e+02,5.49957562e+01,-8.03346183e-08,4.10269332,2.15181102,-5.84509889,7.50981478e-01,4.13274874e-05,6.53589762,-2.81654532,-1,-0.9792565086889796
5.18308403e+02,5.49957549e+01,-8.10643236e-08,4.10727303,2.14257047,-5.84509890,7.50981484e-01,4.13274867e-05,6.54312648,-2.79490114,-1,-0.9785175410619593
5.34597010e+02,5.49957536e+01,-8.18037800e-08,4.11187273,2.13328150,-5.84509893,7.50981490e-01,4.13274861e-05,6.55043493,-2.77296638,-1,-0.9777554520441702
5.51198093e+02,5.49957522e+01,-8.26673400e-08,4.11648978,2.12395240,-5.84509895,7.50981497e-01,4.13274854e-05,6.55780438,-2.75083068,-1,-0.976978743327599
5.68225713e+02,5.49957508e+01,-8.36836932e-08,4.12113209,2.11456619,-5.84509896,7.50981504e-01,4.13274847e-05,6.56526193,-2.72841801,-1,-0.976182078382519
5.85696741e+02,5.49957493e+01,-8.46346784e-08,4.12579808,2.10512867,-5.84509901,7.50981512e-01,4.13274838e-05,6.57280918,-2.70573703,-1,-0.9753646678717072
6.03623267e+02,5.49957478e+01,-8.55497831e-08,4.13048600,2.09564502,-5.84509904,7.50981519e-01,4.13274831e-05,6.58044484,-2.68279600,-1,-0.9745259461448149
6.22047352e+02,5.49957462e+01,-8.63207723e-08,4.13519130,2.08612659,-5.84509908,7.50981528e-01,4.13274821e-05,6.58816576,-2.65960935,-1,-0.9736639453094266
6.41005757e+02,5.49957446e+01,-8.71125697e-08,4.13991525,2.07657304,-5.84509909,7.50981536e-01,4.13274813e-05,6.59597698,-2.63616049,-1,-0.972776945442262
6.60326692e+02,5.49957428e+01,-8.80502713e-08,4.14465557,2.06698736,-5.84509913,7.50981543e-01,4.13274806e-05,6.60385460,-2.61251970,-1,-0.9718729840183714
6.80131996e+02,5.49957411e+01,-8.91467719e-08,4.14941786,2.05735859,-5.84509919,7.50981545e-01,4.13274804e-05,6.61181971,-2.58862765,-1,-0.9709463606016254
7.00445781e+02,5.49957392e+01,-9.01827348e-08,4.15419907,2.04769497,-5.84509919,7.50981537e-01,4.13274811e-05,6.61986788,-2.56449957,-1,-0.969995947072818
7.21284365e+02,5.49957373e+01,-9.11697579e-08,4.15899819,2.03800335,-5.84509920,7.50981525e-01,4.13274824e-05,6.62799999,-2.54013126,-1,-0.969020979967732
7.42614342e+02,5.49957354e+01,-9.20204239e-08,4.16381021,2.02829756,-5.84509924,7.50981513e-01,4.13274837e-05,6.63620367,-2.51555965,-1,-0.9680230222405063
7.64642533e+02,5.49957333e+01,-9.29113278e-08,4.16863610,2.01857882,-5.84509931,7.50981501e-01,4.13274849e-05,6.64449296,-2.49074308,-1,-0.9669923974336792
7.87092325e+02,5.49957312e+01,-9.40234012e-08,4.17347696,2.00884058,-5.84509934,7.50981490e-01,4.13274860e-05,6.65284500,-2.46574514,-1,-0.9659420473371456
8.10084469e+02,5.49957290e+01,-9.52511386e-08,4.17833594,1.99908220,-5.84509936,7.50981484e-01,4.13274866e-05,6.66127477,-2.44052356,-1,-0.964866322418629
8.33639770e+02,5.49957268e+01,-9.64366480e-08,4.18321231,1.98931124,-5.84509943,7.50981480e-01,4.13274871e-05,6.66978197,-2.41508075,-1,-0.9637642492823065
8.57805027e+02,5.49957244e+01,-9.75487963e-08,4.18810339,1.97953932,-5.84509959,7.50981475e-01,4.13274875e-05,6.67836290,-2.38942891,-1,-0.9626336383607128
8.82549818e+02,5.49957220e+01,-9.85689626e-08,4.19300361,1.96977795,-5.84509988,7.50981473e-01,4.13274877e-05,6.68700069,-2.36361734,-1,-0.9614759129966848
9.07912716e+02,5.49957194e+01,-9.96387275e-08,4.19791522,1.96002926,-5.84510026,7.50981470e-01,4.13274879e-05,6.69570006,-2.33763196,-1,-0.9602892684895699
9.33905241e+02,5.49957168e+01,-1.01117330e-07,4.20284693,1.95027562,-5.84510018,7.50981467e-01,4.13274882e-05,6.70447271,-2.31143729,-1,-0.9590731658573984
9.60480717e+02,5.49957141e+01,-1.02618810e-07,4.20779555,1.94052489,-5.84510006,7.50981465e-01,4.13274884e-05,6.71330738,-2.28506707,-1,-0.9578297889128804
9.87671862e+02,5.49957112e+01,-1.04111966e-07,4.21276105,1.93078202,-5.84510002,7.50981466e-01,4.13274882e-05,6.72220244,-2.25852849,-1,-0.9565576068910777
1.01555374e+03,5.49957083e+01,-1.05461956e-07,4.21774172,1.92105928,-5.84510018,7.50981473e-01,4.13274874e-05,6.73115310,-2.23183472,-1,-0.9552531078004476
1.04409438e+03,5.49957052e+01,-1.06803228e-07,4.22273639,1.91135643,-5.84509977,7.50981483e-01,4.13274864e-05,6.74015047,-2.20501292,-1,-0.9539177874563156
1.07317510e+03,5.49957021e+01,-1.08319333e-07,4.22774477,1.90166330,-5.84509901,7.50981491e-01,4.13274854e-05,6.74918753,-2.17808261,-1,-0.9525571985894226
1.10292441e+03,5.49956988e+01,-1.10332825e-07,4.23277585,1.89196582,-5.84509902,7.50981493e-01,4.13274852e-05,6.75828038,-2.15099699,-1,-0.9511653286500348
1.13334207e+03,5.49956954e+01,-1.12280736e-07,4.23782789,1.88226654,-5.84509907,7.50981497e-01,4.13274846e-05,6.76742189,-2.12377440,-1,-0.9497421888669435
1.16443464e+03,5.49956918e+01,-1.14211989e-07,4.24290006,1.87256365,-5.84509954,7.50981505e-01,4.13274838e-05,6.77660497,-2.09643684,-1,-0.9482874723198602
1.19620856e+03,5.49956881e+01,-1.15876346e-07,4.24798855,1.86286035,-5.84509906,7.50981492e-01,4.13274850e-05,6.78581718,-2.06901781,-1,-0.9468008777028923
1.22878825e+03,5.49956843e+01,-1.17642544e-07,4.25309678,1.85314315,-5.84509941,7.50981534e-01,4.13274807e-05,6.79506058,-2.04151058,-1,-0.9452765838236201
1.26191962e+03,5.49956803e+01,-1.19879872e-07,4.25822302,1.84340002,-5.84509946,7.50981549e-01,4.13274791e-05,6.80433362,-2.01391842,-1,-0.9437264786966867
1.29573295e+03,5.49956762e+01,-1.22341109e-07,4.26337090,1.83362166,-5.84509937,7.50981549e-01,4.13274791e-05,6.81364066,-1.98622903,-1,-0.9421444669600246
1.33025264e+03,5.49956719e+01,-1.24710320e-07,4.26853910,1.82380454,-5.84509939,7.50981555e-01,4.13274784e-05,6.82297738,-1.95845334,-1,-0.9405294070198786
1.36555066e+03,5.49956674e+01,-1.26845966e-07,4.27372565,1.81394370,-5.84509953,7.50981550e-01,4.13274789e-05,6.83233813,-1.93060940,-1,-0.9388779316425369
1.40160623e+03,5.49956627e+01,-1.28828406e-07,4.27892701,1.80403753,-5.84509968,7.50981559e-01,4.13274780e-05,6.84171673,-1.90271837,-1,-0.9371910130541565
1.43832781e+03,5.49956579e+01,-1.30940508e-07,4.28414149,1.79408673,-5.84509962,7.50981598e-01,4.13274740e-05,6.85111211,-1.87478252,-1,-0.9354729341027852
1.47586268e+03,5.49956529e+01,-1.33741020e-07,4.28937637,1.78406859,-5.84509937,7.50981586e-01,4.13274751e-05,6.86053893,-1.84675655,-1,-0.9337168040536571
1.51421954e+03,5.49956477e+01,-1.36318329e-07,4.29462817,1.77398584,-5.84509947,7.50981584e-01,4.13274752e-05,6.86999098,-1.81865508,-1,-0.9319222158630973
1.55342327e+03,5.49956422e+01,-1.38754241e-07,4.29989430,1.76383904,-5.84509934,7.50981586e-01,4.13274749e-05,6.87946525,-1.79048983,-1,-0.9300880054797682
1.59346840e+03,5.49956366e+01,-1.40771918e-07,4.30516921,1.75363618,-5.84509945,7.50981601e-01,4.13274733e-05,6.88895317,-1.76228020,-1,-0.9282144288265325
1.63459258e+03,5.49956307e+01,-1.42829273e-07,4.31045359,1.74336435,-5.84509978,7.50981610e-01,4.13274723e-05,6.89846004,-1.73401802,-1,-0.9262903670609328
1.67647157e+03,5.49956246e+01,-1.45394597e-07,4.31574841,1.73303915,-5.84509973,7.50981608e-01,4.13274724e-05,6.90798989,-1.70568923,-1,-0.9243309902796589
1.71926528e+03,5.49956183e+01,-1.47998932e-07,4.32105372,1.72265469,-5.84509964,7.50981605e-01,4.13274726e-05,6.91754411,-1.67728701,-1,-0.9223288168328168
1.76302178e+03,5.49956117e+01,-1.50425778e-07,4.32636732,1.71221497,-5.84509972,7.50981605e-01,4.13274726e-05,6.92712054,-1.64881529,-1,-0.9202815976871351
1.80788895e+03,5.49956049e+01,-1.52475014e-07,4.33168501,1.70172486,-5.84509986,7.50981612e-01,4.13274717e-05,6.93671463,-1.62028812,-1,-0.9181824140358706
1.85387901e+03,5.49955977e+01,-1.54427285e-07,4.33700442,1.69119357,-5.84510006,7.50981622e-01,4.13274706e-05,6.94632478,-1.59170737,-1,-0.9160306941464131
1.90081013e+03,5.49955904e+01,-1.56658133e-07,4.34232761,1.68062688,-5.84510020,7.50981627e-01,4.13274700e-05,6.95595407,-1.56306562,-1,-0.913834945231571
1.94885428e+03,5.49955827e+01,-1.59192734e-07,4.34765697,1.67001914,-5.84510023,7.50981626e-01,4.13274700e-05,6.96561002,-1.53434078,-1,-0.9115871213947011
1.99804511e+03,5.49955748e+01,-1.61530755e-07,4.35299005,1.65937823,-5.84510034,7.50981628e-01,4.13274696e-05,6.97528920,-1.50553919,-1,-0.9092856482657266
2.04849456e+03,5.49955704e+01,-9.34642179e-08,4.35832371,1.64871305,-5.84510059,7.50981655e-01,4.13274666e-05,6.98498818,-1.47667311,-1,-0.9069252885493619
2.10020210e+03,5.49955701e+01,-5.04587152e-09,4.36365543,1.63803389,-5.84510096,7.50981705e-01,4.13274609e-05,6.99470256,-1.44776044,-1,-0.9045060670425207
2.15304816e+03,5.49955699e+01,-5.41554854e-09,4.36898646,1.62734304,-5.84510121,7.50981748e-01,4.13274559e-05,7.00443298,-1.41879550,-1,-0.9020335780224701
2.20721305e+03,5.49955695e+01,-5.90831048e-09,4.37432147,1.61663268,-5.84510112,7.50981778e-01,4.13274522e-05,7.01419036,-1.38974150,-1,-0.8994993853920782
2.26271395e+03,5.49955692e+01,-6.39064590e-09,4.37965828,1.60591030,-5.84510117,7.50981818e-01,4.13274475e-05,7.02397049,-1.36061363,-1,-0.8969026853570534
2.31962217e+03,5.49955688e+01,-6.86023515e-09,4.38499477,1.59518306,-5.84510136,7.50981864e-01,4.13274421e-05,7.03377008,-1.33142007,-1,-0.894240141562859
2.37791989e+03,5.49955684e+01,-7.28487877e-09,4.39032802,1.58446068,-5.84510178,7.50981918e-01,4.13274357e-05,7.04358251,-1.30218360,-1,-0.8915125877472296
2.43763819e+03,5.49955679e+01,-7.73777440e-09,4.39565848,1.57374491,-5.84510218,7.50981983e-01,4.13274280e-05,7.05340796,-1.27290102,-1,-0.8887185697817259
2.49884862e+03,5.49955674e+01,-8.36786816e-09,4.40099258,1.56302300,-5.84510228,7.50982034e-01,4.13274222e-05,7.06325918,-1.24353614,-1,-0.8858547400830203
2.56147607e+03,5.49955668e+01,-8.98781692e-09,4.40632820,1.55230030,-5.84510197,7.50982085e-01,4.13274164e-05,7.07313001,-1.21410387,-1,-0.882924612794841
2.62565922e+03,5.49955662e+01,-9.60375032e-09,4.41166441,1.54158019,-5.84510199,7.50982141e-01,4.13274099e-05,7.08301952,-1.18461501,-1,-0.8799216995474342
2.69149888e+03,5.49955655e+01,-1.01332987e-08,4.41699729,1.53087360,-5.84510240,7.50982205e-01,4.13274025e-05,7.09291995,-1.15508412,-1,-0.8768412837806984
2.75919430e+03,5.49955648e+01,-1.06999423e-08,4.42232726,1.52018154,-5.84510275,7.50982266e-01,4.13273955e-05,7.10283293,-1.12550783,-1,-0.8736740432587425
2.82828379e+03,5.49955640e+01,-1.14347237e-08,4.42766004,1.50948858,-5.84510186,7.50982319e-01,4.13273893e-05,7.11276460,-1.09587093,-1,-0.8704415789004556
2.89900366e+03,5.49955632e+01,-1.22041478e-08,4.43299508,1.49879673,-5.84510133,7.50982373e-01,4.13273831e-05,7.12271525,-1.06617250,-1,-0.8671328345574638
2.97142211e+03,5.49955622e+01,-1.29592824e-08,4.43833116,1.48810901,-5.84510137,7.50982429e-01,4.13273767e-05,7.13268225,-1.03641669,-1,-0.8637446193816478
3.04579177e+03,5.49955612e+01,-1.36181562e-08,4.44366493,1.47743472,-5.84510157,7.50982490e-01,4.13273696e-05,7.14266027,-1.00662081,-1,-0.8602651136668436
