star_age,star_mass,star_mdot,log_Teff,log_R,log_surf_z,surface_h1,surface_he3,log_center_T,log_center_Rho,phase,x
5.11237518e+02,1.65999989,-2.33565167e-10,3.70727718,1.39868648,-5.84509867,7.50981422e-01,4.13274932e-05,5.71316014,-2.97634519,-1,-1.0
5.38832541e+02,1.65999989,-2.29351517e-10,3.70751614,1.39569544,-5.84509867,7.50981422e-01,4.13274932e-05,5.71603723,-2.96773827,-1,-0.9999935772252073
5.67849263e+02,1.65999988,-2.25047153e-10,3.70776219,1.39260756,-5.84509867,7.50981422e-01,4.13274932e-05,5.71900753,-2.95885391,-1,-0.9999868235482624
5.98339456e+02,1.65999987,-2.20661313e-10,3.70801552,1.38942288,-5.84509867,7.50981422e-01,4.13274932e-05,5.72207113,-2.94968826,-1,-0.99997972691917
6.30353889e+02,1.65999987,-2.16219027e-10,3.70827644,1.38614158,-5.84509867,7.50981422e-01,4.13274932e-05,5.72522779,-2.94024304,-1,-0.9999722755213845
6.64236024e+02,1.65999986,-2.11753525e-10,3.70854579,1.38274713,-5.84509867,7.50981422e-01,4.13274932e-05,5.72849373,-2.93046883,-1,-0.9999643894137119
6.99808550e+02,1.65999985,-2.07239697e-10,3.70882399,1.37925682,-5.84509867,7.50981422e-01,4.13274932e-05,5.73185251,-2.92041693,-1,-0.9999561098655012
7.37178626e+02,1.65999984,-2.02698357e-10,3.70910877,1.37566549,-5.84509867,7.50981422e-01,4.13274932e-05,5.73530908,-2.91007162,-1,-0.9999474119353658
7.76641357e+02,1.65999984,-1.98115277e-10,3.70940092,1.37196224,-5.84509867,7.50981422e-01,4.13274932e-05,5.73887390,-2.89940169,-1,-0.9999382269372624
8.17990466e+02,1.65999983,-1.93510419e-10,3.70969997,1.36816370,-5.84509867,7.50981422e-01,4.13274932e-05,5.74253131,-2.88845517,-1,-0.9999286028824107
8.61678768e+02,1.65999982,-1.88888614e-10,3.71000710,1.36425236,-5.84509867,7.50981422e-01,4.13274933e-05,5.74629822,-2.87718304,-1,-0.9999184343775748
9.07498020e+02,1.65999981,-1.84258324e-10,3.71032115,1.36024360,-5.84509867,7.50981422e-01,4.13274933e-05,5.75015955,-2.86562462,-1,-0.9999077698915634
9.55745991e+02,1.65999980,-1.79625056e-10,3.71064263,1.35612912,-5.84509867,7.50981422e-01,4.13274933e-05,5.75412335,-2.85376112,-1,-0.9998965401182837
1.00652473e+03,1.65999979,-1.74995523e-10,3.71097118,1.35191046,-5.84509867,7.50981422e-01,4.13274933e-05,5.75818805,-2.84159362,-1,-0.9998847213057082
1.05983835e+03,1.65999978,-1.70316807e-10,3.71130741,1.34759236,-5.84509867,7.50981422e-01,4.13274933e-05,5.76234888,-2.82913693,-1,-0.999872312496531
1.11587826e+03,1.65999977,-1.65737704e-10,3.71164970,1.34317298,-5.84509867,7.50981422e-01,4.13274933e-05,5.76660835,-2.81638525,-1,-0.9998592691400774
1.17494248e+03,1.65999976,-1.61185611e-10,3.71199915,1.33864883,-5.84509867,7.50981422e-01,4.13274933e-05,5.77096935,-2.80332751,-1,-0.9998455218718338
1.23699518e+03,1.65999975,-1.56641572e-10,3.71235523,1.33402685,-5.84509867,7.50981422e-01,4.13274934e-05,5.77542528,-2.78998532,-1,-0.9998310790312759
1.30219797e+03,1.65999974,-1.52120766e-10,3.71271718,1.32930745,-5.84509867,7.50981422e-01,4.13274934e-05,5.77997598,-2.77635770,-1,-0.9998159030034818
1.37072581e+03,1.65999973,-1.47636860e-10,3.71308626,1.32449094,-5.84509867,7.50981422e-01,4.13274934e-05,5.78462128,-2.76244599,-1,-0.999799953066301
1.44275011e+03,1.65999972,-1.43212142e-10,3.71346167,1.31957882,-5.84509867,7.50981422e-01,4.13274935e-05,5.78936010,-2.74825316,-1,-0.9997831893238499
1.51844727e+03,1.65999971,-1.38831459e-10,3.71384324,1.31457232,-5.84509867,7.50981422e-01,4.13274936e-05,5.79419103,-2.73378510,-1,-0.9997655707188163
1.59799003e+03,1.65999970,-1.34468507e-10,3.71423039,1.30947299,-5.84509867,7.50981422e-01,4.13274937e-05,5.79911307,-2.71904341,-1,-0.9997470570457575
1.68155489e+03,1.65999969,-1.30022039e-10,3.71462419,1.30428017,-5.84509867,7.50981422e-01,4.13274938e-05,5.80412645,-2.70402950,-1,-0.9997276072240863
1.76930188e+03,1.65999968,-1.25746389e-10,3.71502257,1.29899762,-5.84509867,7.50981422e-01,4.13274939e-05,5.80922781,-2.68875049,-1,-0.9997071840066274
1.86162783e+03,1.65999967,-1.21600560e-10,3.71542912,1.29362459,-5.84509867,7.50981422e-01,4.13274941e-05,5.81441763,-2.67320607,-1,-0.9996856950307214
1.95851062e+03,1.65999966,-1.17544532e-10,3.71583945,1.28816849,-5.84509867,7.50981422e-01,4.13274944e-05,5.81968877,-2.65741878,-1,-0.9996631454448246
2.06034123e+03,1.65999965,-1.13575281e-10,3.71625534,1.28262861,-5.84509867,7.50981422e-01,4.13274947e-05,5.82504200,-2.64138263,-1,-0.999639444247872
2.16730425e+03,1.65999963,-1.09676357e-10,3.71667640,1.27700792,-5.84509867,7.50981422e-01,4.13274951e-05,5.83047436,-2.62511029,-1,-0.9996145484763188
2.27955463e+03,1.65999962,-1.05855107e-10,3.71710251,1.27130932,-5.84509867,7.50981422e-01,4.13274956e-05,5.83598316,-2.60860856,-1,-0.9995884220653665
2.39757867e+03,1.65999961,-1.02118456e-10,3.71753370,1.26553188,-5.84509867,7.50981422e-01,4.13274963e-05,5.84156960,-2.59187060,-1,-0.9995609518281049
2.52148646e+03,1.65999960,-9.84655597e-11,3.71796679,1.25968042,-5.84509867,7.50981422e-01,4.13274973e-05,5.84722910,-2.57491218,-1,-0.9995321121409543
2.65157779e+03,1.65999959,-9.49008185e-11,3.71840822,1.25375827,-5.84509867,7.50981422e-01,4.13274985e-05,5.85295920,-2.55774363,-1,-0.9995018332274315
2.78819776e+03,1.65999957,-9.14257837e-11,3.71885269,1.24776771,-5.84509867,7.50981422e-01,4.13275000e-05,5.85864041,-2.54057031,-1,-0.9994700347650964
2.93164030e+03,1.65999956,-8.80034554e-11,3.71930127,1.24170895,-5.84509867,7.50981422e-01,4.13275021e-05,5.86448534,-2.52303195,-1,-0.9994366483413882
3.08235119e+03,1.65999955,-8.47494442e-11,3.71975414,1.23558225,-5.84509867,7.50981422e-01,4.13275048e-05,5.87039377,-2.50530019,-1,-0.9994015702004756
3.24054977e+03,1.65999953,-8.15655952e-11,3.72021063,1.22938999,-5.84509867,7.50981422e-01,4.13275083e-05,5.87638747,-2.48733464,-1,-0.9993647492907097
3.40662670e+03,1.65999952,-7.85534306e-11,3.72067042,1.22313666,-5.84509867,7.50981422e-01,4.13275131e-05,5.88244371,-2.46918094,-1,-0.9993260946855058
3.58083198e+03,1.65999951,-7.55167688e-11,3.72113323,1.21682581,-5.84509867,7.50981422e-01,4.13275193e-05,5.88855616,-2.45085861,-1,-0.9992855481970632
3.76394528e+03,1.65999949,-7.25596641e-11,3.72159806,1.21045475,-5.84509867,7.50981422e-01,4.13275275e-05,5.89473032,-2.43235187,-1,-0.9992429283562515
3.95611896e+03,1.65999948,-6.97528100e-11,3.72206769,1.20403024,-5.84509867,7.50981422e-01,4.13275384e-05,5.90095932,-2.41368404,-1,-0.9991981997010977
4.15764554e+03,1.65999947,-6.70022068e-11,3.72253717,1.19755378,-5.84509867,7.50981422e-01,4.13275527e-05,5.90723950,-2.39486037,-1,-0.9991512941472197
4.36949188e+03,1.65999945,-6.43356363e-11,3.72300850,1.19102332,-5.84509867,7.50981422e-01,4.13275719e-05,5.91357379,-2.37587726,-1,-0.99910198665679
4.59168641e+03,1.65999944,-6.17469549e-11,3.72348173,1.18444328,-5.84509867,7.50981422e-01,4.13275973e-05,5.91995867,-2.35673769,-1,-0.9990502706126915
4.82477465e+03,1.65999943,-5.92406564e-11,3.72395672,1.17781607,-5.84509867,7.50981422e-01,4.13276309e-05,5.92639086,-2.33745219,-1,-0.9989960190444882
5.06973587e+03,1.65999941,-5.68206597e-11,3.72443326,1.17114191,-5.84509867,7.50981422e-01,4.13276759e-05,5.93287078,-2.31802749,-1,-0.99893900402591
5.32667668e+03,1.65999940,-5.44793033e-11,3.72491038,1.16442480,-5.84509867,7.50981422e-01,4.13277355e-05,5.93939429,-2.29847136,-1,-0.998879200743351
5.59628219e+03,1.65999938,-5.22200310e-11,3.72539492,1.15766284,-5.84509867,7.50981422e-01,4.13278145e-05,5.94596294,-2.27877988,-1,-0.9988164497366347
5.87932117e+03,1.65999937,-5.00508480e-11,3.72587503,1.15086392,-5.84509867,7.50981422e-01,4.13279200e-05,5.95256869,-2.25897303,-1,-0.9987505720736191
6.17648937e+03,1.65999935,-4.79545768e-11,3.72635617,1.14402501,-5.84509867,7.50981422e-01,4.13280608e-05,5.95921500,-2.23904237,-1,-0.9986814058176546
6.48825994e+03,1.65999934,-4.59321858e-11,3.72683804,1.13714864,-5.84509867,7.50981422e-01,4.13282482e-05,5.96589983,-2.21899682,-1,-0.99860884084251
6.81536778e+03,1.65999932,-4.39808506e-11,3.72732039,1.13023642,-5.84509867,7.50981421e-01,4.13284974e-05,5.97262214,-2.19883884,-1,-0.9985327060993262
7.15859410e+03,1.65999931,-4.21084649e-11,3.72780327,1.12328924,-5.84509867,7.50981421e-01,4.13288292e-05,5.97938075,-2.17857380,-1,-0.9984528197605362
7.51889770e+03,1.65999930,-4.02994519e-11,3.72828554,1.11631044,-5.84509867,7.50981421e-01,4.13292721e-05,5.98617202,-2.15820904,-1,-0.9983689586642867
7.89716175e+03,1.65999928,-3.85711644e-11,3.72876928,1.10930112,-5.84509867,7.50981421e-01,4.13298641e-05,5.99299460,-2.13774991,-1,-0.9982809172516981
8.29406648e+03,1.65999927,-3.69053149e-11,3.72925146,1.10226373,-5.84509867,7.50981421e-01,4.13306533e-05,5.99984654,-2.11720207,-1,-0.9981885371984197
8.71062628e+03,1.65999925,-3.52992526e-11,3.72973843,1.09519921,-5.84509867,7.50981420e-01,4.13317049e-05,6.00672664,-2.09657283,-1,-0.9980915824039589
9.14780909e+03,1.65999924,-3.37690020e-11,3.73022837,1.08810775,-5.84509867,7.50981420e-01,4.13331073e-05,6.01363477,-2.07585996,-1,-0.9979898275791167
9.60646493e+03,1.65999922,-3.22927018e-11,3.73071019,1.08099379,-5.84509867,7.50981419e-01,4.13349759e-05,6.02056636,-2.05507436,-1,-0.9978830748807156
1.00877688e+04,1.65999921,-3.08752776e-11,3.73119031,1.07385848,-5.84509867,7.50981418e-01,4.13374654e-05,6.02752086,-2.03421742,-1,-0.9977710508260925
1.05928586e+04,1.65999919,-2.95130862e-11,3.73166861,1.06670349,-5.84509867,7.50981417e-01,4.13407809e-05,6.03449648,-2.01329501,-1,-0.9976534905676537
1.11229526e+04,1.65999918,-2.82117810e-11,3.73214604,1.05953152,-5.84509867,7.50981416e-01,4.13451965e-05,6.04149120,-1.99231429,-1,-0.9975301105515915
1.16793355e+04,1.65999916,-2.69623117e-11,3.73262416,1.05234408,-5.84509867,7.50981414e-01,4.13510738e-05,6.04850325,-1.97128556,-1,-0.9974006117624358
1.22633025e+04,1.65999914,-2.57654611e-11,3.73309778,1.04514636,-5.84509867,7.50981411e-01,4.13588926e-05,6.05552699,-1.95021891,-1,-0.9972646927408286
1.28762648e+04,1.65999913,-2.46226239e-11,3.73356914,1.03794177,-5.84509867,7.50981408e-01,4.13692880e-05,6.06255932,-1.92912724,-1,-0.9971220250282729
1.35197441e+04,1.65999911,-2.35278856e-11,3.73403816,1.03073435,-5.84509867,7.50981403e-01,4.13830957e-05,6.06959574,-1.90801956,-1,-0.9969722544472633
1.41953302e+04,1.65999910,-2.24810812e-11,3.73450486,1.02352745,-5.84509867,7.50981397e-01,4.14014175e-05,6.07663299,-1.88691092,-1,-0.9968150109699377
1.49047460e+04,1.65999908,-2.14813193e-11,3.73496904,1.01632776,-5.84509867,7.50981389e-01,4.14257000e-05,6.08366553,-1.86581358,-1,-0.9966498935892492
1.56498297e+04,1.65999907,-2.05271742e-11,3.73542925,1.00914351,-5.84509867,7.50981378e-01,4.14578354e-05,6.09068515,-1.84476111,-1,-0.9964764744619364
1.64326761e+04,1.65999905,-1.96168537e-11,3.73588802,1.00198319,-5.84509867,7.50981364e-01,4.15002929e-05,6.09768334,-1.82377384,-1,-0.9962942660207803
1.72553208e+04,1.65999904,-1.87537094e-11,3.73634125,9.94859001e-01,-5.84509867,7.50981346e-01,4.15562581e-05,6.10464780,-1.80288458,-1,-0.9961027944774323
1.81202058e+04,1.65999902,-1.79328238e-11,3.73678888,9.87787692e-01,-5.84509867,7.50981321e-01,4.16298226e-05,6.11156264,-1.78214059,-1,-0.9959014914534555
1.90299443e+04,1.65999900,-1.71545662e-11,3.73722988,9.80786341e-01,-5.84509867,7.50981289e-01,4.17261822e-05,6.11841097,-1.76159617,-1,-0.9956897487234069
1.99877696e+04,1.65999899,-1.64189477e-11,3.73766654,9.73876708e-01,-5.84509867,7.50981247e-01,4.18520183e-05,6.12517149,-1.74131682,-1,-0.9954668137328226
2.09968742e+04,1.65999897,-1.57275210e-11,3.73809086,9.67087587e-01,-5.84509867,7.50981192e-01,4.20156283e-05,6.13181508,-1.72138645,-1,-0.995231943423488
2.20607323e+04,1.65999896,-1.50773654e-11,3.73850308,9.60449761e-01,-5.84509867,7.50981122e-01,4.22267420e-05,6.13831196,-1.70189728,-1,-0.9949843291711744
2.31832463e+04,1.65999894,-1.44720962e-11,3.73890219,9.53997877e-01,-5.84509867,7.50981032e-01,4.24968535e-05,6.14462818,-1.68294917,-1,-0.9947230626875884
2.43684573e+04,1.65999892,-1.39093419e-11,3.73928608,9.47771284e-01,-5.84509867,7.50980918e-01,4.28387141e-05,6.15072564,-1.66465969,-1,-0.9944472034018446
2.56209714e+04,1.65999891,-1.33917219e-11,3.73965262,9.41808881e-01,-5.84509867,7.50980776e-01,4.32663826e-05,6.15656564,-1.64714314,-1,-0.994155679238628
2.69475982e+04,1.65999889,-1.29179954e-11,3.73999875,9.36155546e-01,-5.84509867,7.50980599e-01,4.37970994e-05,6.16210377,-1.63053182,-1,-0.9938469052553486
2.83497444e+04,1.65999887,-1.24858048e-11,3.74032460,9.30826367e-01,-5.84509867,7.50980385e-01,4.44389249e-05,6.16732521,-1.61486685,-1,-0.9935205540408892
2.98349301e+04,1.65999885,-1.20952796e-11,3.74062715,9.25846827e-01,-5.84509867,7.50980129e-01,4.52063083e-05,6.17220474,-1.60022632,-1,-0.9931748752829306
3.14072457e+04,1.65999883,-1.17426943e-11,3.74090688,9.21210532e-01,-5.84509867,7.50979830e-01,4.61043600e-05,6.17674842,-1.58659340,-1,-0.9928089169359529
3.30694481e+04,1.65999882,-1.14222422e-11,3.74116617,9.16882238e-01,-5.84509867,7.50979487e-01,4.71310691e-05,6.18099130,-1.57386237,-1,-0.992422037328165
3.48256450e+04,1.65999880,-1.11311450e-11,3.74141139,9.12812921e-01,-5.84509867,7.50979104e-01,4.82808438e-05,6.18498110,-1.56189224,-1,-0.992013280387452
3.66779856e+04,1.65999878,-1.08613261e-11,3.74164252,9.08928145e-01,-5.84509867,7.50978684e-01,4.95409019e-05,6.18879036,-1.55046411,-1,-0.9915821458849285
3.86335983e+04,1.65999875,-1.06048127e-11,3.74186770,9.05146279e-01,-5.84509867,7.50978232e-01,5.08982759e-05,6.19249940,-1.53933908,-1,-0.9911269746769211
4.06952392e+04,1.65999873,-1.03582420e-11,3.74209241,9.01360174e-01,-5.84509867,7.50977754e-01,5.23302410e-05,6.19621334,-1.52819867,-1,-0.99064712527784
4.28597311e+04,1.65999871,-1.01109640e-11,3.74232242,8.97472495e-01,-5.84509867,7.50977261e-01,5.38097486e-05,6.20002708,-1.51675905,-1,-0.9901433371848066
4.51327862e+04,1.65999869,-9.85678870e-12,3.74256380,8.93377704e-01,-5.84509867,7.50976760e-01,5.53122033e-05,6.20404470,-1.50470861,-1,-0.9896142808764004
4.75193635e+04,1.65999867,-9.58842335e-12,3.74282352,8.88947933e-01,-5.84509867,7.50976263e-01,5.68038232e-05,6.20839143,-1.49166901,-1,-0.9890588021394072
5.00122660e+04,1.65999864,-9.30007411e-12,3.74310766,8.84090744e-01,-5.84509867,7.50975781e-01,5.82489481e-05,6.21315807,-1.47736990,-1,-0.988478576084233
5.26102203e+04,1.65999862,-8.98888369e-12,3.74342507,8.78689014e-01,-5.84509867,7.50975329e-01,5.96060687e-05,6.21845971,-1.46146494,-1,-0.9878738990962594
5.53059827e+04,1.65999860,-8.65031971e-12,3.74377505,8.72642885e-01,-5.84509867,7.50974921e-01,6.08301231e-05,6.22439489,-1.44365802,-1,-0.9872464571553737
5.80935562e+04,1.65999857,-8.28291285e-12,3.74417020,8.65841964e-01,-5.84509867,7.50974575e-01,6.18681749e-05,6.23107186,-1.42362398,-1,-0.9865976460705387
6.09584109e+04,1.65999855,-7.89066406e-12,3.74460270,8.58271723e-01,-5.84509867,7.50974302e-01,6.26864941e-05,6.23850549,-1.40131678,-1,-0.9859308476934548
6.38946970e+04,1.65999853,-7.47933323e-12,3.74507334,8.49951600e-01,-5.84509867,7.50974110e-01,6.32617583e-05,6.24667784,-1.37679949,-1,-0.985247423572108
6.69034292e+04,1.65999851,-7.06161367e-12,3.74557787,8.41010203e-01,-5.84509867,7.50973994e-01,6.36104693e-05,6.25546240,-1.35044559,-1,-0.9845471375338528
7.00022905e+04,1.65999848,-6.64834853e-12,3.74609840,8.31647892e-01,-5.84509867,7.50973938e-01,6.37784578e-05,6.26466271,-1.32283534,-1,-0.9838258738391712
7.32180667e+04,1.65999846,-6.25255750e-12,3.74662347,8.22099965e-01,-5.84509867,7.50973918e-01,6.38394126e-05,6.27404649,-1.29466745,-1,-0.9830773980608971
7.65754797e+04,1.65999844,-5.88050471e-12,3.74714190,8.12552860e-01,-5.84509867,7.50973913e-01,6.38539404e-05,6.28293830,-1.26581368,-1,-0.9822959561470715
8.00962718e+04,1.65999842,-5.53341987e-12,3.74765092,8.03092371e-01,-5.84509867,7.50973912e-01,6.38565637e-05,6.29166050,-1.23692515,-1,-0.9814764875512194
8.37942384e+04,1.65999840,-5.21172043e-12,3.74815062,7.93738507e-01,-5.84509867,7.50973912e-01,6.38569041e-05,6.30019758,-1.20825090,-1,-0.9806157813773984
8.76782881e+04,1.65999838,-4.91163642e-12,3.74864361,7.84491652e-01,-5.84509867,7.50973912e-01,6.38569339e-05,6.30857623,-1.17969281,-1,-0.9797117641382438
9.17574733e+04,1.65999836,-4.63167985e-12,3.74912669,7.75351991e-01,-5.84509867,7.50973912e-01,6.38569358e-05,6.31678496,-1.15126983,-1,-0.9787623288767682
9.60401758e+04,1.65999835,-4.37028568e-12,3.74959767,7.66317114e-01,-5.84509867,7.50973912e-01,6.38569359e-05,6.32484450,-1.12292253,-1,-0.9777655247189402
1.00536798e+05,1.65999833,-4.12609692e-12,3.75006052,7.57382601e-01,-5.84509867,7.50973912e-01,6.38569359e-05,6.33277003,-1.09462750,-1,-0.9767189304936488
1.05259420e+05,1.65999831,-3.89809340e-12,3.75052457,7.48542023e-01,-5.84509867,7.50973912e-01,6.38569358e-05,6.34057407,-1.06636060,-1,-0.9756197345430896
1.10217755e+05,1.65999829,-3.68450215e-12,3.75097278,7.39800327e-01,-5.84509867,7.50973912e-01,6.38569358e-05,6.34825912,-1.03813275,-1,-0.9744656761082804
1.15425473e+05,1.65999827,-3.48506743e-12,3.75141566,7.31151803e-01,-5.84509867,7.50973912e-01,6.38569358e-05,6.35584294,-1.00991301,-1,-0.9732535734802796
1.20892406e+05,1.65999825,-3.29810676e-12,3.75185219,7.22594754e-01,-5.84509867,7.50973912e-01,6.38569358e-05,6.36333436,-9.81691836e-01,-1,-0.9719811382492622
1.26632065e+05,1.65999823,-3.12289486e-12,3.75228493,7.14126613e-01,-5.84509867,7.50973912e-01,6.38569358e-05,6.37074447,-9.53453512e-01,-1,-0.9706452257137278
1.32663497e+05,1.65999822,-2.95862604e-12,3.75271243,7.05748428e-01,-5.84509867,7.50973913e-01,6.38569358e-05,6.37808154,-9.25184600e-01,-1,-0.9692414026615181
1.38995552e+05,1.65999820,-2.80489119e-12,3.75313924,6.97455516e-01,-5.84509867,7.50973913e-01,6.38569357e-05,6.38535745,-8.96872060e-01,-1,-0.9677676092444888
1.45646524e+05,1.65999818,-2.66060863e-12,3.75356652,6.89247423e-01,-5.84509867,7.50973913e-01,6.38569357e-05,6.39258089,-8.68501920e-01,-1,-0.9662195875121371
1.52633120e+05,1.65999816,-2.52507891e-12,3.75398725,6.81127115e-01,-5.84509867,7.50973913e-01,6.38569357e-05,6.39975782,-8.40070281e-01,-1,-0.9645934488901189
1.59966899e+05,1.65999814,-2.39772001e-12,3.75440600,6.73091339e-01,-5.84509867,7.50973913e-01,6.38569356e-05,6.40689827,-8.11560780e-01,-1,-0.9628865030072818
1.67676896e+05,1.65999813,-2.27821918e-12,3.75482305,6.65142996e-01,-5.84509868,7.50973914e-01,6.38569356e-05,6.41400910,-7.82958976e-01,-1,-0.9610919919324545
1.75769377e+05,1.65999811,-2.16571778e-12,3.75523996,6.57278862e-01,-5.84509868,7.50973914e-01,6.38569355e-05,6.42109966,-7.54258803e-01,-1,-0.9592084572466006
1.84278974e+05,1.65999809,-2.06029912e-12,3.75565689,6.49503544e-01,-5.84509868,7.50973914e-01,6.38569354e-05,6.42817756,-7.25438897e-01,-1,-0.957227838310067
1.93214629e+05,1.65999807,-1.96101141e-12,3.75608352,6.41811323e-01,-5.84509868,7.50973915e-01,6.38569354e-05,6.43525297,-6.96484410e-01,-1,-0.9551480538615988
2.02611797e+05,1.65999805,-1.86796100e-12,3.75650814,6.34210798e-01,-5.84509868,7.50973915e-01,6.38569353e-05,6.44233078,-6.67391786e-01,-1,-0.9529608517073032
2.12478498e+05,1.65999804,-1.78023627e-12,3.75693304,6.26700931e-01,-5.84509868,7.50973916e-01,6.38569352e-05,6.44941985,-6.38148056e-01,-1,-0.9506643651825342
2.22856196e+05,1.65999802,-1.69782978e-12,3.75736259,6.19285007e-01,-5.84509868,7.50973917e-01,6.38569350e-05,6.45652922,-6.08732058e-01,-1,-0.9482489434914215
2.33760472e+05,1.65999800,-1.62007117e-12,3.75779633,6.11964437e-01,-5.84509868,7.50973918e-01,6.38569349e-05,6.46366552,-5.79136612e-01,-1,-0.9457109601374755
2.45225963e+05,1.65999798,-1.54750533e-12,3.75823926,6.04742693e-01,-5.84509868,7.50973919e-01,6.38569347e-05,6.47083603,-5.49342453e-01,-1,-0.9430423533172869
2.57286994e+05,1.65999796,-1.47917423e-12,3.75869131,5.97624418e-01,-5.84509868,7.50973920e-01,6.38569346e-05,6.47805202,-5.19332996e-01,-1,-0.9402351338458221
2.69967247e+05,1.65999795,-1.41501114e-12,3.75916101,5.90610377e-01,-5.84509869,7.50973921e-01,6.38569344e-05,6.48532379,-4.89081422e-01,-1,-0.9372837897090978
2.83310027e+05,1.65999793,-1.35483518e-12,3.75963685,5.83712306e-01,-5.84509869,7.50973922e-01,6.38569341e-05,6.49265695,-4.58583540e-01,-1,-0.9341782416162795
