star_age,star_mass,star_mdot,log_Teff,log_R,log_surf_z,surface_h1,surface_he3,log_center_T,log_center_Rho,phase,x
7.61736367e+03,4.49999968e-01,-3.48176281e-12,3.55726322,8.00604569e-01,-1.34509847,6.38455367e-01,5.25065000e-05,5.80044579,-1.71875829,-1,-1.0
8.02063667e+03,4.49999967e-01,-3.42763975e-12,3.55737856,7.98186909e-01,-1.34509847,6.38455367e-01,5.25065043e-05,5.80269496,-1.71203696,-1,-0.9999978801563326
8.44488674e+03,4.49999965e-01,-3.37253140e-12,3.55749209,7.95686879e-01,-1.34509847,6.38455367e-01,5.25065092e-05,5.80490767,-1.70527956,-1,-0.9999956500446606
8.89163459e+03,4.49999964e-01,-3.31631483e-12,3.55760929,7.93094281e-01,-1.34509847,6.38455367e-01,5.25065149e-05,5.80734825,-1.69802435,-1,-0.9999933016712245
9.36184547e+03,4.49999962e-01,-3.25901485e-12,3.55772612,7.90413845e-01,-1.34509847,6.38455367e-01,5.25065216e-05,5.80982071,-1.69060697,-1,-0.9999908299620937
9.85732018e+03,4.49999961e-01,-3.20070266e-12,3.55784774,7.87640357e-01,-1.34509847,6.38455367e-01,5.25065293e-05,5.81238004,-1.68292998,-1,-0.9999882254511883
1.03786146e+04,4.49999959e-01,-3.14156564e-12,3.55797493,7.84773829e-01,-1.34509847,6.38455367e-01,5.25065383e-05,5.81504967,-1.67494880,-1,-0.9999854852164711
1.09267492e+04,4.49999958e-01,-3.08171829e-12,3.55810512,7.81815891e-01,-1.34509847,6.38455367e-01,5.25065488e-05,5.81779895,-1.66672086,-1,-0.9999826038937426
1.15027196e+04,4.49999956e-01,-3.02107001e-12,3.55823396,7.78765705e-01,-1.34509847,6.38455367e-01,5.25065611e-05,5.82064105,-1.65822119,-1,-0.9999795762494297
1.21099839e+04,4.49999954e-01,-2.95961560e-12,3.55836932,7.75616172e-01,-1.34509847,6.38455367e-01,5.25065756e-05,5.82357738,-1.64944055,-1,-0.9999763841056938
1.27492263e+04,4.49999952e-01,-2.89777597e-12,3.55851364,7.72369939e-01,-1.34509847,6.38455367e-01,5.25065929e-05,5.82660054,-1.64039574,-1,-0.9999730238659714
1.34212431e+04,4.49999950e-01,-2.83531978e-12,3.55865080,7.69028327e-01,-1.34509847,6.38455367e-01,5.25066132e-05,5.82971742,-1.63107173,-1,-0.9999694913444342
1.41292693e+04,4.49999948e-01,-2.77219143e-12,3.55878560,7.65586262e-01,-1.34509847,6.38455367e-01,5.25066375e-05,5.83293029,-1.62146298,-1,-0.9999657695359908
1.48737018e+04,4.49999946e-01,-2.70862464e-12,3.55892701,7.62047685e-01,-1.34509847,6.38455367e-01,5.25066665e-05,5.83623517,-1.61157729,-1,-0.9999618563542977
1.56576956e+04,4.49999944e-01,-2.64489647e-12,3.55906840,7.58409554e-01,-1.34509847,6.38455367e-01,5.25067013e-05,5.83963273,-1.60141296,-1,-0.9999577352147911
1.64815855e+04,4.49999942e-01,-2.58087129e-12,3.55921020,7.54675092e-01,-1.34509847,6.38455367e-01,5.25067429e-05,5.84312294,-1.59097075,-1,-0.9999534043575626
1.73500191e+04,4.49999940e-01,-2.51667381e-12,3.55935286,7.50839187e-01,-1.34509847,6.38455367e-01,5.25067934e-05,5.84670916,-1.58024189,-1,-0.9999488393520515
1.82616700e+04,4.49999938e-01,-2.45252874e-12,3.55950068,7.46909402e-01,-1.34509847,6.38455367e-01,5.25068540e-05,5.85038471,-1.56924539,-1,-0.999944047170608
1.92230114e+04,4.49999935e-01,-2.38842071e-12,3.55964922,7.42877205e-01,-1.34509847,6.38455367e-01,5.25069282e-05,5.85415794,-1.55795614,-1,-0.9999389937862282
2.02342714e+04,4.49999933e-01,-2.32450137e-12,3.55980504,7.38747976e-01,-1.34509847,6.38455367e-01,5.25070185e-05,5.85802362,-1.54638897,-1,-0.9999336779998823
2.12964914e+04,4.49999931e-01,-2.26082966e-12,3.55995116,7.34524825e-01,-1.34509847,6.38455367e-01,5.25071280e-05,5.86197957,-1.53455133,-1,-0.99992809433735
2.24145955e+04,4.49999928e-01,-2.19717979e-12,3.56009396,7.30205177e-01,-1.34509847,6.38455366e-01,5.25072625e-05,5.86602752,-1.52243707,-1,-0.9999222169146218
2.35925484e+04,4.49999926e-01,-2.13405089e-12,3.56024128,7.25787388e-01,-1.34509847,6.38455366e-01,5.25074287e-05,5.87016987,-1.51003750,-1,-0.9999160248908673
2.48309454e+04,4.49999923e-01,-2.07139520e-12,3.56038985,7.21277024e-01,-1.34509847,6.38455366e-01,5.25076332e-05,5.87440096,-1.49737101,-1,-0.9999095151368342
2.61332055e+04,4.49999920e-01,-2.00922639e-12,3.56053317,7.16674605e-01,-1.34509847,6.38455366e-01,5.25078858e-05,5.87872075,-1.48443619,-1,-0.9999026696802173
2.75029314e+04,4.49999918e-01,-1.94771393e-12,3.56067561,7.11981538e-01,-1.34509847,6.38455366e-01,5.25081987e-05,5.88312747,-1.47124140,-1,-0.9998954695830743
2.89437176e+04,4.49999915e-01,-1.88677508e-12,3.56081376,7.07198887e-01,-1.34509847,6.38455366e-01,5.25085877e-05,5.88762079,-1.45778395,-1,-0.9998878959505669
3.04594624e+04,4.49999912e-01,-1.82667279e-12,3.56096006,7.02327706e-01,-1.34509847,6.38455366e-01,5.25090728e-05,5.89219937,-1.44407135,-1,-0.999879928290903
3.20538541e+04,4.49999909e-01,-1.76759312e-12,3.56110232,6.97370053e-01,-1.34509847,6.38455366e-01,5.25096793e-05,5.89686168,-1.43010679,-1,-0.9998715472161755
3.37308744e+04,4.49999906e-01,-1.70924558e-12,3.56124214,6.92327875e-01,-1.34509847,6.38455365e-01,5.25104394e-05,5.90160593,-1.41589793,-1,-0.9998627317961919
3.54945281e+04,4.49999903e-01,-1.65185260e-12,3.56137521,6.87203736e-01,-1.34509847,6.38455365e-01,5.25113939e-05,5.90642986,-1.40144948,-1,-0.9998534609793324
3.73489107e+04,4.49999901e-01,-1.59531626e-12,3.56149532,6.82000587e-01,-1.34509847,6.38455365e-01,5.25125943e-05,5.91133053,-1.38676809,-1,-0.9998437132372036
3.92992090e+04,4.49999897e-01,-1.53984883e-12,3.56162048,6.76719715e-01,-1.34509847,6.38455364e-01,5.25141085e-05,5.91630662,-1.37186036,-1,-0.9998334613048877
4.13514913e+04,4.49999894e-01,-1.48560749e-12,3.56174024,6.71363199e-01,-1.34509847,6.38455364e-01,5.25160286e-05,5.92135662,-1.35672597,-1,-0.999822673283777
4.35085795e+04,4.49999891e-01,-1.43238914e-12,3.56185137,6.65935850e-01,-1.34509847,6.38455363e-01,5.25184554e-05,5.92647592,-1.34138119,-1,-0.9998113343402804
4.57778243e+04,4.49999888e-01,-1.38040492e-12,3.56195923,6.60439453e-01,-1.34509847,6.38455362e-01,5.25215400e-05,5.93166309,-1.32583062,-1,-0.9997994058347294
4.81641385e+04,4.49999885e-01,-1.32963821e-12,3.56206009,6.54878127e-01,-1.34509847,6.38455360e-01,5.25254625e-05,5.93691439,-1.31008554,-1,-0.9997868619425143
5.06737406e+04,4.49999882e-01,-1.28011024e-12,3.56215567,6.49255267e-01,-1.34509847,6.38455359e-01,5.25304598e-05,5.94222662,-1.29416215,-1,-0.9997736699754861
5.33117070e+04,4.49999878e-01,-1.23181782e-12,3.56224142,6.43576307e-01,-1.34509847,6.38455357e-01,5.25368192e-05,5.94759431,-1.27806972,-1,-0.9997598032490556
5.60877641e+04,4.49999875e-01,-1.18483835e-12,3.56232119,6.37844629e-01,-1.34509847,6.38455354e-01,5.25449680e-05,5.95301442,-1.26181702,-1,-0.999745210635457
5.90049970e+04,4.49999872e-01,-1.13925049e-12,3.56239151,6.32067157e-01,-1.34509847,6.38455350e-01,5.25553482e-05,5.95848065,-1.24542149,-1,-0.9997298759175628
6.20745201e+04,4.49999868e-01,-1.09500005e-12,3.56246724,6.26248142e-01,-1.34509847,6.38455346e-01,5.25686525e-05,5.96398925,-1.22889463,-1,-0.9997137406714505
6.53027314e+04,4.49999865e-01,-1.05231815e-12,3.56252856,6.20396218e-01,-1.34509847,6.38455340e-01,5.25856897e-05,5.96953204,-1.21226424,-1,-0.9996967712654121
6.86957339e+04,4.49999861e-01,-1.01089579e-12,3.56257609,6.14520826e-01,-1.34509847,6.38455333e-01,5.26074354e-05,5.97510021,-1.19555833,-1,-0.9996789356184359
7.22673879e+04,4.49999858e-01,-9.70905252e-13,3.56261496,6.08632109e-01,-1.34509847,6.38455324e-01,5.26353804e-05,5.98068341,-1.17880493,-1,-0.9996601608725094
7.60203928e+04,4.49999854e-01,-9.32445025e-13,3.56264515,6.02742118e-01,-1.34509847,6.38455312e-01,5.26709428e-05,5.98627035,-1.16203526,-1,-0.9996404328379745
7.99728098e+04,4.49999851e-01,-8.95491778e-13,3.56266516,5.96866362e-01,-1.34509847,6.38455297e-01,5.27166175e-05,5.99184638,-1.14529326,-1,-0.9996196565743807
8.41262866e+04,4.49999847e-01,-8.60111740e-13,3.56268421,5.91020178e-01,-1.34509847,6.38455277e-01,5.27745127e-05,5.99739714,-1.12862643,-1,-0.9995978234204325
8.85020966e+04,4.49999844e-01,-8.26391543e-13,3.56268261,5.85227492e-01,-1.34509847,6.38455253e-01,5.28485967e-05,6.00290027,-1.11210118,-1,-0.9995748215504382
9.31001115e+04,4.49999840e-01,-7.94260821e-13,3.56267941,5.79506707e-01,-1.34509847,6.38455222e-01,5.29417586e-05,6.00833735,-1.09577516,-1,-0.9995506516388192
9.79492545e+04,4.49999836e-01,-7.63887698e-13,3.56266003,5.73892423e-01,-1.34509847,6.38455182e-01,5.30603056e-05,6.01367576,-1.07974391,-1,-0.9995251616479673
1.03047183e+05,4.49999832e-01,-7.35217777e-13,3.56263017,5.68407688e-01,-1.34509847,6.38455133e-01,5.32080013e-05,6.01889324,-1.06407420,-1,-0.9994983638919869
1.08420098e+05,4.49999828e-01,-7.08396955e-13,3.56260324,5.63089849e-01,-1.34509847,6.38455071e-01,5.33923992e-05,6.02395411,-1.04887320,-1,-0.9994701206427781
1.14082877e+05,4.49999825e-01,-6.83519940e-13,3.56257598,5.57973132e-01,-1.34509847,6.38454995e-01,5.36204002e-05,6.02882518,-1.03424015,-1,-0.9994403536953183
1.20045515e+05,4.49999821e-01,-6.60482758e-13,3.56253444,5.53088236e-01,-1.34509847,6.38454903e-01,5.38982668e-05,6.03347729,-1.02026255,-1,-0.9994090105099196
1.26328483e+05,4.49999817e-01,-6.39325101e-13,3.56248946,5.48466326e-01,-1.34509847,6.38454791e-01,5.42335041e-05,6.03788061,-1.00703131,-1,-0.9993759834787839
1.32952118e+05,4.49999812e-01,-6.20055140e-13,3.56243538,5.44133373e-01,-1.34509847,6.38454658e-01,5.46331238e-05,6.04201019,-9.94619608e-01,-1,-0.9993411656984965
1.39937427e+05,4.49999808e-01,-6.02577210e-13,3.56238571,5.40102795e-01,-1.34509847,6.38454501e-01,5.51028582e-05,6.04585290,-9.83070200e-01,-1,-0.9993044467437229
1.47301362e+05,4.49999804e-01,-5.86865535e-13,3.56233633,5.36371962e-01,-1.34509847,6.38454320e-01,5.56459134e-05,6.04941112,-9.72374391e-01,-1,-0.9992657375046298
1.55053008e+05,4.49999799e-01,-5.72663576e-13,3.56228698,5.32918966e-01,-1.34509847,6.38454115e-01,5.62618817e-05,6.05270540,-9.62473179e-01,-1,-0.9992249902250326
1.63229922e+05,4.49999795e-01,-5.59851681e-13,3.56223756,5.29726751e-01,-1.34509847,6.38453884e-01,5.69533245e-05,6.05575201,-9.53317191e-01,-1,-0.9991820074829159
1.71845138e+05,4.49999790e-01,-5.48185561e-13,3.56218972,5.26745557e-01,-1.34509847,6.38453630e-01,5.77158763e-05,6.05859776,-9.44762885e-01,-1,-0.9991367207637931
1.80924427e+05,4.49999785e-01,-5.37432167e-13,3.56214152,5.23925583e-01,-1.34509847,6.38453354e-01,5.85456057e-05,6.06129017,-9.36671432e-01,-1,-0.9990889945999015
1.90457181e+05,4.49999780e-01,-5.27297854e-13,3.56210640,5.21200721e-01,-1.34509847,6.38453058e-01,5.94325610e-05,6.06389215,-9.28850752e-01,-1,-0.9990388847532228
2.00535292e+05,4.49999775e-01,-5.17654100e-13,3.56205315,5.18517161e-01,-1.34509847,6.38452743e-01,6.03773917e-05,6.06645543,-9.21144034e-01,-1,-0.9989859081845395
2.11139044e+05,4.49999770e-01,-5.08073296e-13,3.56200663,5.15803031e-01,-1.34509847,6.38452413e-01,6.13669344e-05,6.06904824,-9.13348290e-01,-1,-0.9989301685329195
2.22277169e+05,4.49999764e-01,-4.98434609e-13,3.56195729,5.12997543e-01,-1.34509847,6.38452072e-01,6.23918104e-05,6.07172878,-9.05288171e-01,-1,-0.9988716198977571
2.33977646e+05,4.49999758e-01,-4.88445766e-13,3.56189631,5.10037888e-01,-1.34509847,6.38451721e-01,6.34432288e-05,6.07455732,-8.96783059e-01,-1,-0.9988101152047232
2.46324553e+05,4.49999752e-01,-4.77800680e-13,3.56182820,5.06829585e-01,-1.34509847,6.38451365e-01,6.45113332e-05,6.07762393,-8.87560893e-01,-1,-0.9987452124896498
2.59295204e+05,4.49999746e-01,-4.66323445e-13,3.56175060,5.03313742e-01,-1.34509847,6.38451009e-01,6.55811280e-05,6.08098532,-8.77450384e-01,-1,-0.9986770310036979
2.72892476e+05,4.49999740e-01,-4.53821971e-13,3.56166418,4.99418840e-01,-1.34509847,6.38450656e-01,6.66373594e-05,6.08470990,-8.66248927e-01,-1,-0.9986055556236378
2.87194668e+05,4.49999734e-01,-4.39998897e-13,3.56156872,4.95012252e-01,-1.34509847,6.38450316e-01,6.76583086e-05,6.08892496,-8.53572970e-01,-1,-0.9985303747631761
3.02177466e+05,4.49999727e-01,-4.24659120e-13,3.56144417,4.90010095e-01,-1.34509847,6.38449996e-01,6.86201513e-05,6.09371107,-8.39179905e-01,-1,-0.9984516162312137
3.17853021e+05,4.49999721e-01,-4.07645157e-13,3.56129201,4.84294637e-01,-1.34509847,6.38449704e-01,6.94937844e-05,6.09918185,-8.22724899e-01,-1,-0.9983692161548396
3.34225574e+05,4.49999714e-01,-3.88898768e-13,3.56111976,4.77743211e-01,-1.34509847,6.38449454e-01,7.02454630e-05,6.10545605,-8.03849948e-01,-1,-0.998283152240826
3.51284254e+05,4.49999708e-01,-3.68473195e-13,3.56090922,4.70265655e-01,-1.34509847,6.38449255e-01,7.08418402e-05,6.11262128,-7.82292646e-01,-1,-0.9981934816336393
3.69019473e+05,4.49999702e-01,-3.46692752e-13,3.56065141,4.61852198e-01,-1.34509847,6.38449115e-01,7.12605077e-05,6.12068800,-7.58021632e-01,-1,-0.9981002547335321
3.87450523e+05,4.49999696e-01,-3.24241439e-13,3.56036911,4.52636745e-01,-1.34509847,6.38449033e-01,7.15073047e-05,6.12952878,-7.31421101e-01,-1,-0.998003370130234
4.06644837e+05,4.49999690e-01,-3.02115675e-13,3.56003823,4.42897380e-01,-1.34509847,6.38448996e-01,7.16182675e-05,6.13887785,-7.03291050e-01,-1,-0.9979024733556352
4.26724296e+05,4.49999684e-01,-2.81069302e-13,3.55967560,4.32979080e-01,-1.34509847,6.38448985e-01,7.16527296e-05,6.14840555,-6.74620578e-01,-1,-0.997796923730429
4.47807200e+05,4.49999678e-01,-2.61629719e-13,3.55930003,4.23128972e-01,-1.34509847,6.38448982e-01,7.16593761e-05,6.15787544,-6.46123313e-01,-1,-0.9976860993991831
4.69983528e+05,4.49999673e-01,-2.43860651e-13,3.55893204,4.13438963e-01,-1.34509847,6.38448982e-01,7.16600875e-05,6.16722561,-6.18012386e-01,-1,-0.99756952737855
4.93304355e+05,4.49999667e-01,-2.27545676e-13,3.55854644,4.03930642e-01,-1.34509847,6.38448982e-01,7.16601253e-05,6.17648787,-5.90272291e-01,-1,-0.997446939187835
5.17837303e+05,4.49999662e-01,-2.12561279e-13,3.55814476,3.94598056e-01,-1.34509847,6.38448982e-01,7.16601263e-05,6.18547728,-5.63223774e-01,-1,-0.9973179793654313
5.43641925e+05,4.49999657e-01,-1.98760333e-13,3.55773732,3.85423825e-01,-1.34509847,6.38448982e-01,7.16601263e-05,6.19431850,-5.36619620e-01,-1,-0.9971823348652141
5.70790968e+05,4.49999652e-01,-1.86055386e-13,3.55733755,3.76393790e-01,-1.34509847,6.38448982e-01,7.16601263e-05,6.20302687,-5.10417787e-01,-1,-0.997039623285517
5.99349462e+05,4.49999646e-01,-1.74336079e-13,3.55694391,3.67497219e-01,-1.34509847,6.38448982e-01,7.16601263e-05,6.21161266,-4.84587256e-01,-1,-0.9968895027898327
6.29364037e+05,4.49999641e-01,-1.63458367e-13,3.55652129,3.58732697e-01,-1.34509847,6.38448982e-01,7.16601263e-05,6.22007616,-4.59125064e-01,-1,-0.9967317282630404
6.60923517e+05,4.49999636e-01,-1.53378616e-13,3.55609762,3.50086820e-01,-1.34509847,6.38448982e-01,7.16601263e-05,6.22842940,-4.33992018e-01,-1,-0.9965658327931625
6.94110638e+05,4.49999632e-01,-1.44020855e-13,3.55566131,3.41555114e-01,-1.34509847,6.38448982e-01,7.16601263e-05,6.23667593,-4.09178581e-01,-1,-0.9963913814703842
7.29012576e+05,4.49999627e-01,-1.35328618e-13,3.55522347,3.33128282e-01,-1.34509847,6.38448982e-01,7.16601263e-05,6.24482460,-3.84658601e-01,-1,-0.9962079160456002
7.65692885e+05,4.49999622e-01,-1.27230517e-13,3.55477956,3.24799123e-01,-1.34509847,6.38448982e-01,7.16601263e-05,6.25288298,-3.60412623e-01,-1,-0.9960151024410407
8.04278187e+05,4.49999617e-01,-1.19715159e-13,3.55433969,3.16560318e-01,-1.34509847,6.38448982e-01,7.16601263e-05,6.26085759,-3.36423094e-01,-1,-0.9958122750558723
8.44834141e+05,4.49999613e-01,-1.12689219e-13,3.55388818,3.08408654e-01,-1.34509847,6.38448982e-01,7.16601263e-05,6.26875101,-3.12678584e-01,-1,-0.9955990887471886
8.87472165e+05,4.49999608e-01,-1.06130382e-13,3.55343336,3.00338639e-01,-1.34509847,6.38448982e-01,7.16601263e-05,6.27656860,-2.89158944e-01,-1,-0.9953749578354578
9.32299385e+05,4.49999603e-01,-1.00005265e-13,3.55297330,2.92346358e-01,-1.34509847,6.38448982e-01,7.16601263e-05,6.28431442,-2.65852205e-01,-1,-0.9951393192024632
9.79433625e+05,4.49999599e-01,-9.42770143e-14,3.55251805,2.84425792e-01,-1.34509847,6.38448982e-01,7.16601263e-05,6.29199416,-2.42743966e-01,-1,-0.9948915534949122
1.02898482e+06,4.49999594e-01,-8.89293465e-14,3.55206400,2.76572297e-01,-1.34509847,6.38448982e-01,7.16601264e-05,6.29961107,-2.19824110e-01,-1,-0.9946310828288069
1.08107930e+06,4.49999590e-01,-8.39110923e-14,3.55160010,2.68784522e-01,-1.34509847,6.38448982e-01,7.16601264e-05,6.30716663,-1.97092102e-01,-1,-0.99435724313824
1.13584641e+06,4.49999585e-01,-7.92075103e-14,3.55113537,2.61057088e-01,-1.34509847,6.38448982e-01,7.16601264e-05,6.31466633,-1.74526308e-01,-1,-0.9940693545086647
1.19340935e+06,4.49999581e-01,-7.47925362e-14,3.55066343,2.53388352e-01,-1.34509847,6.38448982e-01,7.16601265e-05,6.32211274,-1.52120053e-01,-1,-0.9937667693273229
1.25396259e+06,4.49999577e-01,-7.06620769e-14,3.55020836,2.45771856e-01,-1.34509847,6.38448982e-01,7.16601265e-05,6.32951171,-1.29857383e-01,-1,-0.9934484653437834
1.31759407e+06,4.49999572e-01,-6.67774803e-14,3.54974838,2.38207246e-01,-1.34509847,6.38448982e-01,7.16601266e-05,6.33686264,-1.07736485e-01,-1,-0.9931139802929008
1.38450106e+06,4.49999568e-01,-6.31294329e-14,3.54929369,2.30690068e-01,-1.34509847,6.38448982e-01,7.16601267e-05,6.34416978,-8.57457603e-02,-1,-0.9927622772057723
1.45487365e+06,4.49999564e-01,-5.97040078e-14,3.54884214,2.23217277e-01,-1.34509847,6.38448982e-01,7.16601268e-05,6.35143548,-6.38800636e-02,-1,-0.9923923568558621
1.52882423e+06,4.49999560e-01,-5.64805413e-14,3.54839180,2.15785514e-01,-1.34509847,6.38448982e-01,7.16601269e-05,6.35866273,-4.21317292e-02,-1,-0.9920036284542266
1.60655120e+06,4.49999555e-01,-5.34447765e-14,3.54794378,2.08392809e-01,-1.34509847,6.38448982e-01,7.16601271e-05,6.36585413,-2.04902817e-02,-1,-0.9915950490920084
1.68832972e+06,4.49999551e-01,-5.05886918e-14,3.54749850,2.01037676e-01,-1.34509847,6.38448982e-01,7.16601273e-05,6.37301099,1.05290868e-03,-1,-0.9911651723639595
1.77427358e+06,4.49999547e-01,-4.78948549e-14,3.54705442,1.93717012e-01,-1.34509847,6.38448982e-01,7.16601276e-05,6.38013703,2.25027068e-02,-1,-0.9907134001219002
1.86461956e+06,4.49999543e-01,-4.53597457e-14,3.54662143,1.86426888e-01,-1.34509847,6.38448982e-01,7.16601280e-05,6.38723493,4.38689587e-02,-1,-0.9902384877087779
1.95962030e+06,4.49999539e-01,-4.29688346e-14,3.54619128,1.79166673e-01,-1.34509847,6.38448982e-01,7.16601284e-05,6.39430450,6.51532961e-02,-1,-0.9897391070979106
2.05948766e+06,4.49999534e-01,-4.07131793e-14,3.54576407,1.71934592e-01,-1.34509847,6.38448982e-01,7.16601290e-05,6.40134719,8.63576603e-02,-1,-0.9892141446266445
2.16449257e+06,4.49999530e-01,-3.85842354e-14,3.54534248,1.64728813e-01,-1.34509847,6.38448982e-01,7.16601297e-05,6.40836571,1.07490951e-01,-1,-0.9886621761251374
2.27491001e+06,4.49999526e-01,-3.65751140e-14,3.54492529,1.57547747e-01,-1.34509847,6.38448982e-01,7.16601306e-05,6.41536183,1.28558560e-01,-1,-0.9880817561343289
2.39099568e+06,4.49999522e-01,-3.46786792e-14,3.54451977,1.50388872e-01,-1.34509847,6.38448982e-01,7.16601317e-05,6.42233863,1.49569419e-01,-1,-0.9874715405423499
2.51301152e+06,4.49999518e-01,-3.28875472e-14,3.54411796,1.43251560e-01,-1.34509847,6.38448982e-01,7.16601331e-05,6.42929632,1.70521926e-01,-1,-0.9868301524361658
2.64128788e+06,4.49999514e-01,-3.11944295e-14,3.54372253,1.36134579e-01,-1.34509847,6.38448982e-01,7.16601349e-05,6.43623512,1.91417695e-01,-1,-0.9861558552989368
2.77619159e+06,4.49999510e-01,-2.95938646e-14,3.54333089,1.29036750e-01,-1.34509847,6.38448982e-01,7.16601371e-05,6.44315578,2.12266609e-01,-1,-0.9854467208531623
2.91803347e+06,4.49999506e-01,-2.80801622e-14,3.54294408,1.21956377e-01,-1.34509847,6.38448982e-01,7.16601398e-05,6.45006042,2.33070000e-01,-1,-0.9847011152433433
3.06713354e+06,4.49999502e-01,-2.66483413e-14,3.54256396,1.14891826e-01,-1.34509847,6.38448982e-01,7.16601432e-05,6.45695072,2.53834013e-01,-1,-0.9839173562532874
3.22390948e+06,4.49999498e-01,-2.52933625e-14,3.54218897,1.07842671e-01,-1.34509847,6.38448982e-01,7.16601474e-05,6.46382714,2.74556570e-01,-1,-0.9830932483075335
3.38874089e+06,4.49999494e-01,-2.40112467e-14,3.54181890,1.00807894e-01,-1.34509847,6.38448982e-01,7.16601527e-05,6.47069002,2.95236873e-01,-1,-0.9822267960018366
