star_age,star_mass,star_mdot,log_Teff,log_R,log_surf_z,surface_h1,surface_he3,log_center_T,log_center_Rho,phase,x
8.06346722e+02,3.39999978,-2.43449462e-10,3.59304630,1.66114179,-1.34509847,6.38455367e-01,5.25064653e-05,5.79626562,-3.44397263,-1,-1.0
8.45694968e+02,3.39999977,-2.40379362e-10,3.59334904,1.65892256,-1.34509847,6.38455367e-01,5.25064653e-05,5.79839416,-3.43757318,-1,-0.9999876306072507
8.86988990e+02,3.39999976,-2.37479963e-10,3.59365623,1.65662499,-1.34509847,6.38455367e-01,5.25064653e-05,5.80059813,-3.43094461,-1,-0.9999746495463842
9.30284650e+02,3.39999975,-2.34407279e-10,3.59397382,1.65424804,-1.34509847,6.38455367e-01,5.25064653e-05,5.80287851,-3.42408609,-1,-0.999961039256795
9.75662816e+02,3.39999974,-2.31216707e-10,3.59430440,1.65179038,-1.34509847,6.38455367e-01,5.25064653e-05,5.80523639,-3.41699431,-1,-0.9999467743170695
1.02321915e+03,3.39999973,-2.27940298e-10,3.59463978,1.64925092,-1.34509847,6.38455367e-01,5.25064653e-05,5.80767312,-3.40966426,-1,-0.9999318246551973
1.07305811e+03,3.39999972,-2.24576359e-10,3.59499142,1.64662773,-1.34509847,6.38455367e-01,5.25064653e-05,5.81019012,-3.40208884,-1,-0.999916157434085
1.12528318e+03,3.39999970,-2.21158221e-10,3.59535357,1.64391939,-1.34509847,6.38455367e-01,5.25064653e-05,5.81278937,-3.39426774,-1,-0.9998997401228231
1.18013170e+03,3.39999969,-2.17674646e-10,3.59572020,1.64112083,-1.34509847,6.38455367e-01,5.25064653e-05,5.81547519,-3.38618412,-1,-0.9998824981119442
1.23770788e+03,3.39999968,-2.14119640e-10,3.59610473,1.63823104,-1.34509847,6.38455367e-01,5.25064653e-05,5.81824897,-3.37783793,-1,-0.9998643986423154
1.29804909e+03,3.39999967,-2.10543216e-10,3.59653480,1.63525053,-1.34509847,6.38455367e-01,5.25064653e-05,5.82110955,-3.36922837,-1,-0.9998454299664191
1.36123964e+03,3.39999965,-2.06948591e-10,3.59693002,1.63218229,-1.34509847,6.38455367e-01,5.25064653e-05,5.82405551,-3.36036096,-1,-0.9998255655808249
1.42739223e+03,3.39999964,-2.03237997e-10,3.59736640,1.62902367,-1.34509847,6.38455367e-01,5.25064653e-05,5.82708817,-3.35123010,-1,-0.99980477005751
1.49672190e+03,3.39999963,-1.99559165e-10,3.59780266,1.62577255,-1.34509847,6.38455367e-01,5.25064653e-05,5.83021042,-3.34182914,-1,-0.9997829757971658
1.56968947e+03,3.39999961,-1.95793906e-10,3.59824472,1.62241963,-1.34509847,6.38455367e-01,5.25064653e-05,5.83343099,-3.33213117,-1,-0.9997600379378443
1.64595778e+03,3.39999960,-1.91972146e-10,3.59868056,1.61897859,-1.34509847,6.38455367e-01,5.25064653e-05,5.83673701,-3.32217409,-1,-0.999736062468119
1.72586409e+03,3.39999958,-1.88127480e-10,3.59917314,1.61544168,-1.34509847,6.38455367e-01,5.25064653e-05,5.84013494,-3.31194039,-1,-0.9997109433679807
1.80986374e+03,3.39999957,-1.84304903e-10,3.59965684,1.61180315,-1.34509847,6.38455367e-01,5.25064653e-05,5.84363176,-3.30140642,-1,-0.9996845374981572
1.89752757e+03,3.39999955,-1.80477957e-10,3.60015766,1.60807629,-1.34509847,6.38455367e-01,5.25064653e-05,5.84721362,-3.29061596,-1,-0.9996569797680571
1.98990154e+03,3.39999953,-1.76567241e-10,3.60065758,1.60424214,-1.34509847,6.38455367e-01,5.25064653e-05,5.85089904,-3.27951285,-1,-0.9996279413729341
2.08629781e+03,3.39999952,-1.72659408e-10,3.60122272,1.60031764,-1.34509847,6.38455367e-01,5.25064653e-05,5.85467118,-3.26814829,-1,-0.9995976385400404
2.18770868e+03,3.39999950,-1.68823249e-10,3.60175835,1.59628834,-1.34509847,6.38455367e-01,5.25064653e-05,5.85854497,-3.25647313,-1,-0.9995657593330209
2.29374703e+03,3.39999948,-1.64899109e-10,3.60228005,1.59216791,-1.34509847,6.38455367e-01,5.25064653e-05,5.86250720,-3.24453169,-1,-0.9995324254457204
2.40485966e+03,3.39999947,-1.60952537e-10,3.60284368,1.58795021,-1.34509847,6.38455367e-01,5.25064653e-05,5.86656296,-3.23230150,-1,-0.9994974964234742
2.52154235e+03,3.39999945,-1.57058559e-10,3.60340325,1.58363207,-1.34509847,6.38455367e-01,5.25064653e-05,5.87071601,-3.21977410,-1,-0.9994608164144171
2.64369402e+03,3.39999943,-1.53172499e-10,3.60403354,1.57921702,-1.34509847,6.38455367e-01,5.25064653e-05,5.87496214,-3.20696329,-1,-0.9994224171937449
2.77156997e+03,3.39999941,-1.49324864e-10,3.60461247,1.57470961,-1.34509847,6.38455367e-01,5.25064653e-05,5.87929834,-3.19387620,-1,-0.9993822185061403
2.90569327e+03,3.39999939,-1.45453310e-10,3.60521392,1.57010457,-1.34509847,6.38455367e-01,5.25064653e-05,5.88372932,-3.18049970,-1,-0.999340055920938
3.04638277e+03,3.39999937,-1.41588082e-10,3.60584990,1.56540218,-1.34509847,6.38455367e-01,5.25064654e-05,5.88825414,-3.16683691,-1,-0.9992958292054395
3.19375590e+03,3.39999935,-1.37808884e-10,3.60649478,1.56060570,-1.34509847,6.38455367e-01,5.25064654e-05,5.89287048,-3.15289568,-1,-0.9992495014447137
3.34812527e+03,3.39999933,-1.34030422e-10,3.60711394,1.55571791,-1.34509847,6.38455367e-01,5.25064655e-05,5.89757693,-3.13868432,-1,-0.9992009743676491
3.50988735e+03,3.39999931,-1.30247165e-10,3.60776244,1.55073783,-1.34509847,6.38455367e-01,5.25064655e-05,5.90237310,-3.12420127,-1,-0.9991501233411645
3.67939906e+03,3.39999929,-1.26527755e-10,3.60843948,1.54566599,-1.34509847,6.38455367e-01,5.25064657e-05,5.90725895,-3.10944739,-1,-0.999096836164994
3.85702341e+03,3.39999926,-1.22901438e-10,3.60912658,1.54050541,-1.34509847,6.38455367e-01,5.25064659e-05,5.91214940,-3.09458528,-1,-0.9990409987244383
4.04312041e+03,3.39999924,-1.19260177e-10,3.60982902,1.53525446,-1.34509847,6.38455367e-01,5.25064662e-05,5.91718196,-3.07935881,-1,-0.9989824978478687
4.23805818e+03,3.39999922,-1.15711723e-10,3.61052854,1.52991523,-1.34509847,6.38455367e-01,5.25064665e-05,5.92232437,-3.06382671,-1,-0.9989212178142223
4.44224636e+03,3.39999919,-1.12194814e-10,3.61123701,1.52448936,-1.34509847,6.38455367e-01,5.25064670e-05,5.92755824,-3.04802769,-1,-0.9988570298503371
4.65633952e+03,3.39999917,-1.08702684e-10,3.61198436,1.51897621,-1.34509847,6.38455367e-01,5.25064678e-05,5.93287781,-3.03196853,-1,-0.9987897281876154
4.88071260e+03,3.39999915,-1.05312523e-10,3.61270391,1.51338006,-1.34509847,6.38455367e-01,5.25064690e-05,5.93827947,-3.01566331,-1,-0.9987191949610796
5.11566280e+03,3.39999912,-1.01941067e-10,3.61342394,1.50770421,-1.34509847,6.38455367e-01,5.25064708e-05,5.94376159,-2.99911954,-1,-0.9986453367438586
5.36171933e+03,3.39999910,-9.86323407e-11,3.61420141,1.50194626,-1.34509847,6.38455367e-01,5.25064727e-05,5.94932699,-2.98232628,-1,-0.9985679871751356
5.61955808e+03,3.39999907,-9.54193132e-11,3.61494265,1.49611069,-1.34509847,6.38455367e-01,5.25064749e-05,5.95496922,-2.96530219,-1,-0.9984869337842234
5.88983656e+03,3.39999905,-9.22458326e-11,3.61571178,1.49019622,-1.34509847,6.38455367e-01,5.25064775e-05,5.96069050,-2.94804249,-1,-0.9984019698783148
6.17263288e+03,3.39999902,-8.91302132e-11,3.61647102,1.48420923,-1.34509847,6.38455367e-01,5.25064803e-05,5.96648556,-2.93056411,-1,-0.9983130709029919
6.46933499e+03,3.39999900,-8.60970497e-11,3.61731826,1.47814243,-1.34509847,6.38455367e-01,5.25064843e-05,5.97235994,-2.91285277,-1,-0.9982198005465917
6.77985017e+03,3.39999897,-8.31618242e-11,3.61809553,1.47200719,-1.34509847,6.38455367e-01,5.25064903e-05,5.97830456,-2.89493487,-1,-0.9981221879562858
7.10516714e+03,3.39999895,-8.02508130e-11,3.61890637,1.46580108,-1.34509847,6.38455367e-01,5.25064989e-05,5.98432166,-2.87680546,-1,-0.9980199223211174
7.44599846e+03,3.39999892,-7.74263377e-11,3.61970497,1.45952776,-1.34509847,6.38455367e-01,5.25065106e-05,5.99040720,-2.85847370,-1,-0.9979127796429316
7.80288636e+03,3.39999889,-7.46576320e-11,3.62049679,1.45319080,-1.34509847,6.38455367e-01,5.25065270e-05,5.99655793,-2.83995135,-1,-0.9978005894679849
8.17689783e+03,3.39999886,-7.19769515e-11,3.62134732,1.44678586,-1.34509847,6.38455367e-01,5.25065502e-05,6.00277684,-2.82122708,-1,-0.9976830163806054
8.56865280e+03,3.39999884,-6.93610556e-11,3.62216423,1.44032042,-1.34509847,6.38455367e-01,5.25065837e-05,6.00905741,-2.80232248,-1,-0.9975598655015183
8.97866243e+03,3.39999881,-6.68091705e-11,3.62299858,1.43379514,-1.34509847,6.38455367e-01,5.25066306e-05,6.01539883,-2.78323694,-1,-0.9974309761440492
9.40862940e+03,3.39999878,-6.43225711e-11,3.62380336,1.42721302,-1.34509847,6.38455367e-01,5.25066930e-05,6.02179882,-2.76398139,-1,-0.9972958130589863
9.85886012e+03,3.39999875,-6.19392632e-11,3.62469129,1.42056975,-1.34509847,6.38455367e-01,5.25067839e-05,6.02826069,-2.74453923,-1,-0.9971542799242311
1.03300625e+04,3.39999872,-5.95905710e-11,3.62551575,1.41387711,-1.34509847,6.38455367e-01,5.25069170e-05,6.03477351,-2.72494536,-1,-0.9970061542033886
1.08242656e+04,3.39999870,-5.73144984e-11,3.62637942,1.40713030,-1.34509847,6.38455367e-01,5.25071184e-05,6.04134138,-2.70518954,-1,-0.9968507980474409
1.13417239e+04,3.39999867,-5.51471728e-11,3.62726787,1.40033102,-1.34509847,6.38455366e-01,5.25074311e-05,6.04796214,-2.68527890,-1,-0.9966881314588437
1.18832630e+04,3.39999864,-5.30090769e-11,3.62810125,1.39348916,-1.34509847,6.38455366e-01,5.25078029e-05,6.05462701,-2.66523680,-1,-0.9965178949045378
1.24507101e+04,3.39999861,-5.09431301e-11,3.62895725,1.38660160,-1.34509847,6.38455366e-01,5.25082031e-05,6.06133897,-2.64505798,-1,-0.99633951399159
1.30453403e+04,3.39999858,-4.89473548e-11,3.62981232,1.37967112,-1.34509847,6.38455366e-01,5.25086981e-05,6.06809516,-2.62474546,-1,-0.9961525878835136
1.36681920e+04,3.39999855,-4.70297005e-11,3.63070977,1.37269650,-1.34509847,6.38455366e-01,5.25093197e-05,6.07489689,-2.60429847,-1,-0.9959567901521003
1.43203419e+04,3.39999852,-4.51650138e-11,3.63158971,1.36568453,-1.34509847,6.38455366e-01,5.25101702e-05,6.08173778,-2.58373813,-1,-0.9957517823292729
1.50033582e+04,3.39999849,-4.33809498e-11,3.63248258,1.35863394,-1.34509847,6.38455365e-01,5.25113675e-05,6.08861898,-2.56306220,-1,-0.9955370714405359
1.57185349e+04,3.39999846,-4.16367776e-11,3.63334434,1.35155290,-1.34509847,6.38455365e-01,5.25130418e-05,6.09553314,-2.54229319,-1,-0.9953122507080572
1.64682049e+04,3.39999843,-3.99709504e-11,3.63424891,1.34443765,-1.34509847,6.38455364e-01,5.25151923e-05,6.10248311,-2.52142267,-1,-0.9950765867686177
1.72535439e+04,3.39999840,-3.83643957e-11,3.63515812,1.33729469,-1.34509847,6.38455363e-01,5.25180424e-05,6.10946290,-2.50046315,-1,-0.9948297100328066
1.80759229e+04,3.39999837,-3.68109809e-11,3.63603831,1.33013225,-1.34509847,6.38455362e-01,5.25220348e-05,6.11646453,-2.47944072,-1,-0.9945711895173099
1.89374302e+04,3.39999834,-3.53164531e-11,3.63693421,1.32295301,-1.34509847,6.38455360e-01,5.25272936e-05,6.12348524,-2.45836731,-1,-0.9943003687506075
1.98395805e+04,3.39999831,-3.38762751e-11,3.63778871,1.31576684,-1.34509847,6.38455357e-01,5.25344509e-05,6.13051526,-2.43727096,-1,-0.994016771576298
2.07851937e+04,3.39999827,-3.25043983e-11,3.63871333,1.30857168,-1.34509847,6.38455354e-01,5.25442092e-05,6.13755635,-2.41614488,-1,-0.9937195115393511
2.17754461e+04,3.39999824,-3.11816811e-11,3.63958263,1.30138518,-1.34509847,6.38455350e-01,5.25563487e-05,6.14459206,-2.39503911,-1,-0.9934082188617417
2.28131043e+04,3.39999821,-2.99168928e-11,3.64046554,1.29421443,-1.34509847,6.38455344e-01,5.25736352e-05,6.15161531,-2.37397371,-1,-0.9930820238436622
2.39002713e+04,3.39999818,-2.87021935e-11,3.64132599,1.28707598,-1.34509847,6.38455336e-01,5.25982530e-05,6.15860997,-2.35300420,-1,-0.9927402653925455
2.50395032e+04,3.39999815,-2.75418549e-11,3.64217045,1.27998679,-1.34509847,6.38455325e-01,5.26316133e-05,6.16555923,-2.33217641,-1,-0.992382139980712
2.62338272e+04,3.39999812,-2.64416923e-11,3.64303645,1.27296239,-1.34509847,6.38455310e-01,5.26769410e-05,6.17244755,-2.31153751,-1,-0.9920066959869452
2.74854191e+04,3.39999808,-2.53985758e-11,3.64385543,1.26603061,-1.34509847,6.38455292e-01,5.27313395e-05,6.17924782,-2.29116739,-1,-0.9916132494334956
2.87991094e+04,3.39999805,-2.44213541e-11,3.64470127,1.25921368,-1.34509847,6.38455264e-01,5.28161821e-05,6.18593686,-2.27113267,-1,-0.9912002818193434
3.01768035e+04,3.39999802,-2.34914114e-11,3.64551884,1.25254624,-1.34509847,6.38455227e-01,5.29261345e-05,6.19248108,-2.25153268,-1,-0.9907671941688457
3.16214765e+04,3.39999799,-2.26218715e-11,3.64628556,1.24606153,-1.34509847,6.38455181e-01,5.30651672e-05,6.19884739,-2.23247056,-1,-0.9903130512387807
3.31364413e+04,3.39999795,-2.18069587e-11,3.64702575,1.23979166,-1.34509847,6.38455117e-01,5.32544190e-05,6.20500421,-2.21403664,-1,-0.9898368115961643
3.47286959e+04,3.39999792,-2.10574946e-11,3.64774514,1.23377854,-1.34509847,6.38455027e-01,5.35268955e-05,6.21091034,-2.19635896,-1,-0.9893362753713899
3.63983859e+04,3.39999788,-2.03651433e-11,3.64842506,1.22803970,-1.34509847,6.38454925e-01,5.38315315e-05,6.21654866,-2.17948632,-1,-0.9888113967940921
3.81532589e+04,3.39999785,-1.97289630e-11,3.64908152,1.22260573,-1.34509847,6.38454792e-01,5.42300937e-05,6.22188880,-2.16350447,-1,-0.9882597403527299
3.99939569e+04,3.39999781,-1.91488153e-11,3.64970615,1.21747031,-1.34509847,6.38454613e-01,5.47681238e-05,6.22693682,-2.14840050,-1,-0.9876811042301714
4.19256420e+04,3.39999778,-1.86157944e-11,3.65027962,1.21262851,-1.34509847,6.38454388e-01,5.54428754e-05,6.23169737,-2.13415633,-1,-0.9870738656846479
4.39544749e+04,3.39999774,-1.81243524e-11,3.65083528,1.20805379,-1.34509847,6.38454131e-01,5.62128859e-05,6.23619607,-2.12069851,-1,-0.9864360880575874
4.60832984e+04,3.39999770,-1.76742617e-11,3.65133109,1.20369484,-1.34509847,6.38453852e-01,5.70499962e-05,6.24048346,-2.10787743,-1,-0.985766877695186
4.83189349e+04,3.39999766,-1.72497660e-11,3.65186642,1.19948000,-1.34509847,6.38453504e-01,5.80945840e-05,6.24462927,-2.09547983,-1,-0.9850640899289091
5.06631507e+04,3.39999762,-1.68449616e-11,3.65234954,1.19532801,-1.34509847,6.38453128e-01,5.92217122e-05,6.24871372,-2.08326866,-1,-0.9843271695101592
5.31193878e+04,3.39999758,-1.64440575e-11,3.65283692,1.19114646,-1.34509847,6.38452707e-01,6.04853915e-05,6.25282744,-2.07096713,-1,-0.9835550344224759
5.56911351e+04,3.39999754,-1.60432650e-11,3.65333637,1.18683981,-1.34509847,6.38452222e-01,6.19409493e-05,6.25706473,-2.05829746,-1,-0.9827465879060608
5.83833543e+04,3.39999750,-1.56288949e-11,3.65385512,1.18230549,-1.34509847,6.38451748e-01,6.33627275e-05,6.26152644,-2.04495438,-1,-0.9819002702162684
6.12049016e+04,3.39999746,-1.51955448e-11,3.65443983,1.17741530,-1.34509847,6.38451344e-01,6.45745534e-05,6.26633904,-2.03056325,-1,-0.9810132973454947
6.41540208e+04,3.39999741,-1.47365804e-11,3.65505399,1.17206544,-1.34509847,6.38450906e-01,6.58881023e-05,6.27160455,-2.01481974,-1,-0.9800862213673327
6.72371830e+04,3.39999737,-1.42408201e-11,3.65576951,1.16612250,-1.34509847,6.38450468e-01,6.72029766e-05,6.27745444,-1.99732749,-1,-0.9791170080468277
7.04524969e+04,3.39999732,-1.36983004e-11,3.65652847,1.15949373,-1.34509847,6.38449999e-01,6.86102064e-05,6.28398058,-1.97781143,-1,-0.9781062519271903
7.38012424e+04,3.39999728,-1.31166012e-11,3.65737237,1.15209662,-1.34509847,6.38449679e-01,6.95688160e-05,6.29126474,-1.95602824,-1,-0.9770535506630202
7.72863814e+04,3.39999724,-1.24980614e-11,3.65831377,1.14389907,-1.34509847,6.38449429e-01,7.03208584e-05,6.29933867,-1.93188549,-1,-0.9759579731606067
8.09106744e+04,3.39999719,-1.18603180e-11,3.65934410,1.13497309,-1.34509847,6.38449227e-01,7.09266862e-05,6.30813156,-1.90560003,-1,-0.9748186516377193
8.46855925e+04,3.39999715,-1.12151368e-11,3.66041604,1.12549434,-1.34509847,6.38449089e-01,7.13395497e-05,6.31747009,-1.87768074,-1,-0.9736319800748883
8.86246498e+04,3.39999711,-1.05895524e-11,3.66154507,1.11572139,-1.34509847,6.38449022e-01,7.15393526e-05,6.32709942,-1.84889009,-1,-0.9723937102214915
9.27431863e+04,3.39999706,-9.99489762e-12,3.66267559,1.10588256,-1.34522859,6.38467733e-01,7.16305988e-05,6.33664432,-1.81972799,-1,-0.9710990198426376
9.70532545e+04,3.39999702,-9.43556897e-12,3.66376211,1.09610893,-1.34565046,6.38520829e-01,7.16565742e-05,6.34592863,-1.79047249,-1,-0.9697441201517536
1.01569600e+05,3.39999698,-8.91618934e-12,3.66487211,1.08642619,-1.34611392,6.38576055e-01,7.16577618e-05,6.35512269,-1.76129313,-1,-0.9683243757676915
1.06300566e+05,3.39999694,-8.42919780e-12,3.66597076,1.07684098,-1.34628229,6.38590605e-01,7.16580508e-05,6.36421279,-1.73224468,-1,-0.9668371639479383
1.11254670e+05,3.39999690,-7.97203102e-12,3.66701351,1.06736094,-1.34628695,6.38587214e-01,7.16581938e-05,6.37309487,-1.70352770,-1,-0.9652798071575731
1.16445796e+05,3.39999686,-7.54331418e-12,3.66807209,1.05797242,-1.34577012,6.38507408e-01,7.16593157e-05,6.38184929,-1.67495593,-1,-0.9636479408653553
1.21882817e+05,3.39999682,-7.14305115e-12,3.66911195,1.04867303,-1.34594318,6.38528116e-01,7.16590260e-05,6.39048290,-1.64651538,-1,-0.9619387757824851
1.27577780e+05,3.39999678,-6.76722567e-12,3.67014949,1.03945779,-1.34655761,6.38573532e-01,7.16584181e-05,6.39899791,-1.61817339,-1,-0.9601485248513524
1.33543329e+05,3.39999674,-6.41257658e-12,3.67116775,1.03032549,-1.34678668,6.38586009e-01,7.16582526e-05,6.40739501,-1.58992072,-1,-0.9582732133432762
1.39792522e+05,3.39999670,-6.07960321e-12,3.67215895,1.02127562,-1.34679042,6.38584417e-01,7.16582712e-05,6.41567942,-1.56174152,-1,-0.9563087363858178
1.46334511e+05,3.39999666,-5.76507955e-12,3.67310638,1.01230839,-1.34637231,6.38540672e-01,7.16588673e-05,6.42385991,-1.53363658,-1,-0.9542522169846014
1.53190823e+05,3.39999663,-5.47025907e-12,3.67411784,1.00340844,-1.34651029,6.38544593e-01,7.16588104e-05,6.43195925,-1.50555763,-1,-0.9520968879785768
1.60370207e+05,3.39999659,-5.19302767e-12,3.67506295,9.94586927e-01,-1.34650733,6.38542204e-01,7.16588369e-05,6.43996998,-1.47753911,-1,-0.9498399990592004
1.67893629e+05,3.39999655,-4.93170738e-12,3.67603246,9.85833230e-01,-1.34703138,6.38558394e-01,7.16586413e-05,6.44790282,-1.44953937,-1,-0.9474749594196444
1.75768292e+05,3.39999651,-4.68442170e-12,3.67696315,9.77153184e-01,-1.34694323,6.38549819e-01,7.16587613e-05,6.45575415,-1.42156949,-1,-0.9449995047471371
1.84020315e+05,3.39999648,-4.45195798e-12,3.67788862,9.68543268e-01,-1.34717110,6.38554383e-01,7.16587068e-05,6.46352633,-1.39359490,-1,-0.9424054243537301
1.92665536e+05,3.39999644,-4.23314120e-12,3.67883140,9.59997845e-01,-1.34719666,6.38549544e-01,7.16587713e-05,6.47122705,-1.36559553,-1,-0.9396877394547943
2.01717644e+05,3.39999640,-4.02628129e-12,3.67976291,9.51518736e-01,-1.34727051,6.38546192e-01,7.16588137e-05,6.47886044,-1.33757256,-1,-0.9368421468186852
2.11203232e+05,3.39999636,-3.83060341e-12,3.68066754,9.43108707e-01,-1.34714102,6.38538770e-01,7.16589104e-05,6.48643098,-1.30951645,-1,-0.9338602867522824
2.21131468e+05,3.39999633,-3.64629968e-12,3.68156167,9.34763633e-01,-1.34642381,6.38500546e-01,7.16594255e-05,6.49394522,-1.28140946,-1,-0.9307392772314997
2.31542538e+05,3.39999629,-3.47162146e-12,3.68247661,9.26483368e-01,-1.34680242,6.38509997e-01,7.16592933e-05,6.50140294,-1.25323165,-1,-0.9274664855098348
2.42438688e+05,3.39999625,-3.30797123e-12,3.68337426,9.18266486e-01,-1.34731130,6.38529928e-01,7.16590148e-05,6.50880503,-1.22497650,-1,-0.9240412055416837
2.53861159e+05,3.39999622,-3.15219856e-12,3.68427362,9.10116774e-01,-1.34665503,6.38501880e-01,7.16593942e-05,6.51615091,-1.19662333,-1,-0.9204504729340116
2.65818862e+05,3.39999618,-3.00609419e-12,3.68517832,9.02029031e-01,-1.34752986,6.38527016e-01,7.16590358e-05,6.52344891,-1.16815019,-1,-0.9166914864524561
2.78351299e+05,3.39999614,-2.86676219e-12,3.68604952,8.94013221e-01,-1.34667391,6.38495853e-01,7.16594633e-05,6.53069413,-1.13955781,-1,-0.9127518283706368
2.91474453e+05,3.39999611,-2.73603470e-12,3.68695842,8.86059951e-01,-1.34790119,6.38526327e-01,7.16590165e-05,6.53789871,-1.11081521,-1,-0.9086264743221737
3.05227574e+05,3.39999607,-2.61201419e-12,3.68782545,8.78179379e-01,-1.34714945,6.38503509e-01,7.16593304e-05,6.54506258,-1.08192523,-1,-0.9043030857986256
3.19632439e+05,3.39999604,-2.49519594e-12,3.68872955,8.70365889e-01,-1.34657597,6.38483757e-01,7.16596435e-05,6.55219940,-1.05286061,-1,-0.899774817049717
3.34731028e+05,3.39999600,-2.38404736e-12,3.68966941,8.62623783e-01,-1.34918434,6.38541968e-01,7.16588241e-05,6.55931460,-1.02360106,-1,-0.8950284713726616
