star_age,star_mass,star_mdot,log_Teff,log_R,log_surf_z,surface_h1,surface_he3,log_center_T,log_center_Rho,phase,x
7.53281738e+02,3.79999975,-2.96590808e-10,3.59285897,1.70599592,-1.34509847,6.38455367e-01,5.25064653e-05,5.79725550,-3.53117189,-1,-1.0
7.89403302e+02,3.79999974,-2.92642893e-10,3.59315723,1.70377395,-1.34509847,6.38455367e-01,5.25064653e-05,5.79939076,-3.52474849,-1,-0.9999847550463702
8.27276691e+02,3.79999972,-2.89106491e-10,3.59345829,1.70147554,-1.34509847,6.38455367e-01,5.25064653e-05,5.80159995,-3.51810065,-1,-0.9999687707423929
8.66960763e+02,3.79999971,-2.85351717e-10,3.59377201,1.69909964,-1.34509847,6.38455367e-01,5.25064653e-05,5.80388362,-3.51122493,-1,-0.9999520222472977
9.08522484e+02,3.79999970,-2.81462695e-10,3.59409682,1.69664526,-1.34509847,6.38455367e-01,5.25064653e-05,5.80624290,-3.50412256,-1,-0.999934481298367
9.52053953e+02,3.79999969,-2.77468506e-10,3.59451263,1.69410743,-1.34509847,6.38455367e-01,5.25064653e-05,5.80868150,-3.49678017,-1,-0.9999161090256065
9.97629840e+02,3.79999968,-2.73588491e-10,3.59487566,1.69148929,-1.34509847,6.38455367e-01,5.25064653e-05,5.81119880,-3.48920022,-1,-0.9998968739148578
1.04538516e+03,3.79999966,-2.69454972e-10,3.59522592,1.68878762,-1.34509847,6.38455367e-01,5.25064653e-05,5.81379698,-3.48137586,-1,-0.9998767189836102
1.09552017e+03,3.79999965,-2.65196003e-10,3.59558966,1.68599741,-1.34509847,6.38455367e-01,5.25064653e-05,5.81648083,-3.47329350,-1,-0.9998555597142418
1.14803586e+03,3.79999964,-2.60883507e-10,3.59596632,1.68312113,-1.34509847,6.38455367e-01,5.25064653e-05,5.81924784,-3.46495935,-1,-0.9998333956889275
1.20302200e+03,3.79999962,-2.56516944e-10,3.59636700,1.68015794,-1.34509847,6.38455367e-01,5.25064653e-05,5.82209860,-3.45637373,-1,-0.9998101890206176
1.26056606e+03,3.79999961,-2.52143979e-10,3.59678903,1.67710740,-1.34509847,6.38455367e-01,5.25064653e-05,5.82503349,-3.44753507,-1,-0.9997859027929676
1.32075414e+03,3.79999959,-2.47708428e-10,3.59722313,1.67396987,-1.34509847,6.38455367e-01,5.25064653e-05,5.82805235,-3.43844343,-1,-0.9997605006678363
1.38389966e+03,3.79999958,-2.43261486e-10,3.59771631,1.67073616,-1.34509847,6.38455367e-01,5.25064653e-05,5.83116346,-3.42907220,-1,-0.9997338503676352
1.45017605e+03,3.79999956,-2.38818867e-10,3.59816041,1.66740825,-1.34509847,6.38455367e-01,5.25064653e-05,5.83436636,-3.41942261,-1,-0.9997058786969649
1.51941013e+03,3.79999955,-2.34233435e-10,3.59862534,1.66399321,-1.34509847,6.38455367e-01,5.25064653e-05,5.83765322,-3.40952033,-1,-0.9996766587457134
1.59195615e+03,3.79999953,-2.29635168e-10,3.59910782,1.66048441,-1.34509847,6.38455367e-01,5.25064653e-05,5.84103071,-3.39934050,-1,-0.9996460410041635
1.66808464e+03,3.79999951,-2.25015470e-10,3.59959919,1.65687839,-1.34509847,6.38455367e-01,5.25064653e-05,5.84450243,-3.38887672,-1,-0.9996139112962705
1.74751573e+03,3.79999949,-2.20344596e-10,3.60006499,1.65318794,-1.34509847,6.38455367e-01,5.25064653e-05,5.84805650,-3.37816359,-1,-0.9995803877399866
1.83111024e+03,3.79999948,-2.15600632e-10,3.60057238,1.64939357,-1.34509847,6.38455367e-01,5.25064653e-05,5.85171115,-3.36714492,-1,-0.9995451070298639
1.91830056e+03,3.79999946,-2.10907870e-10,3.60111575,1.64551229,-1.34509847,6.38455367e-01,5.25064653e-05,5.85544992,-3.35587252,-1,-0.9995083087233074
2.00994082e+03,3.79999944,-2.06232737e-10,3.60164193,1.64153010,-1.34509847,6.38455367e-01,5.25064653e-05,5.85928702,-3.34430506,-1,-0.9994696323383556
2.10570553e+03,3.79999942,-2.01507598e-10,3.60218729,1.63745780,-1.34509847,6.38455367e-01,5.25064653e-05,5.86321105,-3.33247280,-1,-0.999429215246689
2.20598760e+03,3.79999940,-1.96811144e-10,3.60274275,1.63329111,-1.34509847,6.38455367e-01,5.25064653e-05,5.86722629,-3.32036310,-1,-0.9993868916223008
2.31118426e+03,3.79999938,-1.92091541e-10,3.60330576,1.62902718,-1.34509847,6.38455367e-01,5.25064653e-05,5.87133525,-3.30796591,-1,-0.9993424938159456
2.42119930e+03,3.79999936,-1.87402509e-10,3.60391528,1.62467024,-1.34509847,6.38455367e-01,5.25064653e-05,5.87553362,-3.29529501,-1,-0.9992960624326482
2.53628462e+03,3.79999934,-1.82746571e-10,3.60450726,1.62022230,-1.34509847,6.38455367e-01,5.25064653e-05,5.87982074,-3.28235230,-1,-0.9992474911590766
2.65704800e+03,3.79999932,-1.78081116e-10,3.60509792,1.61567774,-1.34509847,6.38455367e-01,5.25064653e-05,5.88420169,-3.26912126,-1,-0.9991965234842471
2.78347808e+03,3.79999929,-1.73466075e-10,3.60572458,1.61104010,-1.34509847,6.38455367e-01,5.25064653e-05,5.88867310,-3.25561681,-1,-0.9991431642025999
2.91580666e+03,3.79999927,-1.68842973e-10,3.60635809,1.60631204,-1.34509847,6.38455367e-01,5.25064653e-05,5.89323258,-3.24184551,-1,-0.999087315483923
3.05435095e+03,3.79999925,-1.64334172e-10,3.60701853,1.60149179,-1.34509847,6.38455367e-01,5.25064654e-05,5.89788185,-3.22780121,-1,-0.999028843451075
3.19938834e+03,3.79999923,-1.59799416e-10,3.60766335,1.59658284,-1.34509847,6.38455367e-01,5.25064654e-05,5.90261786,-3.21349392,-1,-0.998967631032777
3.35126572e+03,3.79999920,-1.55345591e-10,3.60833772,1.59158363,-1.34509847,6.38455367e-01,5.25064655e-05,5.90744229,-3.19891923,-1,-0.9989035318255688
3.51029151e+03,3.79999918,-1.50910249e-10,3.60902279,1.58649632,-1.34509847,6.38455367e-01,5.25064655e-05,5.91235377,-3.18408170,-1,-0.9988364156620909
3.67679080e+03,3.79999915,-1.46531764e-10,3.60970346,1.58132446,-1.34509847,6.38455367e-01,5.25064656e-05,5.91727721,-3.16912641,-1,-0.998766145339481
3.85111031e+03,3.79999913,-1.42247878e-10,3.61041067,1.57606480,-1.34509847,6.38455367e-01,5.25064657e-05,5.92234953,-3.15379925,-1,-0.9986925745260266
4.03355919e+03,3.79999910,-1.37960247e-10,3.61109553,1.57072377,-1.34509847,6.38455367e-01,5.25064658e-05,5.92750379,-3.13823162,-1,-0.9986155727462748
4.22455156e+03,3.79999908,-1.33742270e-10,3.61181240,1.56530112,-1.34509847,6.38455367e-01,5.25064660e-05,5.93273897,-3.12242590,-1,-0.9985349652226275
4.42445161e+03,3.79999905,-1.29666500e-10,3.61256134,1.55979550,-1.34509847,6.38455367e-01,5.25064664e-05,5.93806117,-3.10636294,-1,-0.9984505982502324
4.63389628e+03,3.79999902,-1.25579288e-10,3.61329440,1.55421003,-1.34509847,6.38455367e-01,5.25064670e-05,5.94346763,-3.09005450,-1,-0.9983622030112509
4.85318905e+03,3.79999900,-1.21608331e-10,3.61404433,1.54854580,-1.34509847,6.38455367e-01,5.25064678e-05,5.94895222,-3.07350770,-1,-0.9982696514232295
5.08256205e+03,3.79999897,-1.17690282e-10,3.61477202,1.54280813,-1.34509847,6.38455367e-01,5.25064689e-05,5.95451153,-3.05673849,-1,-0.998172845516682
5.32259988e+03,3.79999894,-1.13892603e-10,3.61558710,1.53699158,-1.34509847,6.38455367e-01,5.25064701e-05,5.96014941,-3.03973362,-1,-0.9980715385636453
5.57428460e+03,3.79999891,-1.10135592e-10,3.61638068,1.53109925,-1.34509847,6.38455367e-01,5.25064717e-05,5.96586344,-3.02250515,-1,-0.9979653160898414
5.83744013e+03,3.79999889,-1.06483261e-10,3.61716590,1.52513724,-1.34509847,6.38455367e-01,5.25064741e-05,5.97164796,-3.00507069,-1,-0.9978542524090914
6.11283200e+03,3.79999886,-1.02879161e-10,3.61795819,1.51910576,-1.34509847,6.38455367e-01,5.25064776e-05,5.97750306,-2.98742629,-1,-0.9977380244326897
6.40129863e+03,3.79999883,-9.93385168e-11,3.61873190,1.51300764,-1.34509847,6.38455367e-01,5.25064826e-05,5.98342588,-2.96958446,-1,-0.9976162783090138
6.70294682e+03,3.79999880,-9.59244936e-11,3.61956987,1.50684138,-1.34509847,6.38455367e-01,5.25064892e-05,5.98941748,-2.95153988,-1,-0.9974889689635746
7.01911748e+03,3.79999877,-9.25685675e-11,3.62036920,1.50061075,-1.34509847,6.38455367e-01,5.25064970e-05,5.99547512,-2.93330204,-1,-0.9973555304709663
7.34964190e+03,3.79999874,-8.92989578e-11,3.62123082,1.49431605,-1.34509847,6.38455367e-01,5.25065079e-05,6.00159699,-2.91487329,-1,-0.997216034034532
7.69597159e+03,3.79999871,-8.61368494e-11,3.62203419,1.48796137,-1.34509847,6.38455367e-01,5.25065243e-05,6.00778089,-2.89625997,-1,-0.9970698670506026
8.05808987e+03,3.79999868,-8.30347118e-11,3.62286186,1.48154826,-1.34509847,6.38455367e-01,5.25065472e-05,6.01402406,-2.87747153,-1,-0.9969170365589018
8.43735308e+03,3.79999865,-7.99963122e-11,3.62369758,1.47507754,-1.34509847,6.38455367e-01,5.25065776e-05,6.02032574,-2.85851056,-1,-0.9967569701218573
8.83428565e+03,3.79999862,-7.70796988e-11,3.62454433,1.46855005,-1.34509847,6.38455367e-01,5.25066171e-05,6.02668487,-2.83938381,-1,-0.9965894464060008
9.24931957e+03,3.79999859,-7.42392439e-11,3.62538150,1.46197103,-1.34509847,6.38455367e-01,5.25066675e-05,6.03309595,-2.82010321,-1,-0.9964142830917763
9.68433275e+03,3.79999855,-7.14563277e-11,3.62622168,1.45534008,-1.34509847,6.38455367e-01,5.25067329e-05,6.03955959,-2.80066312,-1,-0.9962306876151941
1.01394488e+04,3.79999852,-6.87898688e-11,3.62710482,1.44865663,-1.34509847,6.38455367e-01,5.25068272e-05,6.04607647,-2.78106617,-1,-0.9960386078071755
1.06154055e+04,3.79999849,-6.61712589e-11,3.62796266,1.44192843,-1.34509847,6.38455367e-01,5.25069612e-05,6.05263986,-2.76133277,-1,-0.9958377322907854
1.11140535e+04,3.79999846,-6.36650076e-11,3.62883967,1.43515184,-1.34509847,6.38455367e-01,5.25071503e-05,6.05925283,-2.74145374,-1,-0.9956272800070023
1.16357809e+04,3.79999843,-6.12221777e-11,3.62969398,1.42833357,-1.34509847,6.38455366e-01,5.25074093e-05,6.06590856,-2.72144825,-1,-0.9954070871598593
1.21817702e+04,3.79999839,-5.88691845e-11,3.63058597,1.42147117,-1.34509847,6.38455366e-01,5.25077588e-05,6.07260939,-2.70130570,-1,-0.995176654680222
1.27529530e+04,3.79999836,-5.65860682e-11,3.63146150,1.41457006,-1.34509847,6.38455366e-01,5.25082052e-05,6.07935113,-2.68104732,-1,-0.9949355893902426
1.33510495e+04,3.79999833,-5.43573684e-11,3.63234490,1.40763151,-1.34509847,6.38455366e-01,5.25086851e-05,6.08613187,-2.66067540,-1,-0.9946831652867716
1.39771925e+04,3.79999830,-5.22401870e-11,3.63323328,1.40065633,-1.34509847,6.38455366e-01,5.25092838e-05,6.09295135,-2.64019486,-1,-0.9944189042763497
1.46324077e+04,3.79999826,-5.01833510e-11,3.63412425,1.39364884,-1.34509847,6.38455366e-01,5.25102214e-05,6.09980472,-2.61961572,-1,-0.9941423734666215
1.53178915e+04,3.79999823,-4.81850930e-11,3.63498304,1.38661592,-1.34509847,6.38455365e-01,5.25114722e-05,6.10668544,-2.59896034,-1,-0.9938530679220162
1.60356341e+04,3.79999820,-4.62684744e-11,3.63590526,1.37955289,-1.34509847,6.38455365e-01,5.25131981e-05,6.11359756,-2.57821367,-1,-0.993550147687024
1.67865398e+04,3.79999816,-4.44291120e-11,3.63678643,1.37246939,-1.34509847,6.38455364e-01,5.25155723e-05,6.12053267,-2.55740102,-1,-0.9932332311056464
1.75724606e+04,3.79999813,-4.26483643e-11,3.63767016,1.36536857,-1.34509847,6.38455363e-01,5.25190954e-05,6.12748776,-2.53653356,-1,-0.9929015365491003
1.83957479e+04,3.79999809,-4.09512373e-11,3.63861370,1.35824964,-1.34509847,6.38455361e-01,5.25243246e-05,6.13446263,-2.51561178,-1,-0.9925540716189398
1.92571522e+04,3.79999806,-3.93018226e-11,3.63948339,1.35112878,-1.34509847,6.38455358e-01,5.25327264e-05,6.14144239,-2.49468243,-1,-0.9921905195698079
2.01590373e+04,3.79999802,-3.77253140e-11,3.64037936,1.34400674,-1.34509847,6.38455354e-01,5.25451670e-05,6.14842556,-2.47374619,-1,-0.991809882769891
2.11029677e+04,3.79999799,-3.62019839e-11,3.64124509,1.33689768,-1.34509847,6.38455349e-01,5.25596197e-05,6.15539916,-2.45284612,-1,-0.9914115009285674
2.20915248e+04,3.79999795,-3.47545103e-11,3.64214774,1.32980666,-1.34509847,6.38455343e-01,5.25777925e-05,6.16235785,-2.43199613,-1,-0.9909942845768624
2.31264381e+04,3.79999792,-3.33683280e-11,3.64302559,1.32275120,-1.34509847,6.38455335e-01,5.26015874e-05,6.16928434,-2.41124752,-1,-0.9905575037866006
2.42102764e+04,3.79999788,-3.20497684e-11,3.64390665,1.31574598,-1.34509847,6.38455326e-01,5.26288362e-05,6.17616355,-2.39064588,-1,-0.9901000744065839
2.53453394e+04,3.79999785,-3.07915879e-11,3.64477431,1.30881192,-1.34509847,6.38455314e-01,5.26660625e-05,6.18297482,-2.37025315,-1,-0.9896210258581335
2.65340602e+04,3.79999781,-2.95970315e-11,3.64561240,1.30197328,-1.34509847,6.38455294e-01,5.27243604e-05,6.18969356,-2.35014076,-1,-0.9891193312616637
2.77799529e+04,3.79999778,-2.84707172e-11,3.64641797,1.29525802,-1.34509847,6.38455267e-01,5.28050260e-05,6.19629269,-2.33038561,-1,-0.9885935075061013
2.90864031e+04,3.79999774,-2.74078305e-11,3.64722891,1.28869394,-1.34509847,6.38455233e-01,5.29085416e-05,6.20274479,-2.31107486,-1,-0.9880421257132557
3.04553831e+04,3.79999771,-2.64125300e-11,3.64800742,1.28231244,-1.34509847,6.38455186e-01,5.30475240e-05,6.20901912,-2.29230050,-1,-0.9874643534822363
3.18894655e+04,3.79999767,-2.54798877e-11,3.64873337,1.27614604,-1.34509847,6.38455124e-01,5.32361589e-05,6.21508333,-2.27415876,-1,-0.986859105058071
3.33964712e+04,3.79999763,-2.46178674e-11,3.64948125,1.27023362,-1.34509847,6.38455038e-01,5.34919636e-05,6.22089863,-2.25676064,-1,-0.9862230796629242
3.49743247e+04,3.79999759,-2.38351658e-11,3.65019276,1.26458240,-1.34509847,6.38454940e-01,5.37878539e-05,6.22645836,-2.24012754,-1,-0.985557153252811
3.66322728e+04,3.79999755,-2.31032645e-11,3.65082451,1.25923637,-1.34509847,6.38454806e-01,5.41901660e-05,6.23171972,-2.22439231,-1,-0.9848574232548187
3.83702276e+04,3.79999751,-2.24310800e-11,3.65142850,1.25417929,-1.34509847,6.38454624e-01,5.47336059e-05,6.23669779,-2.20950613,-1,-0.9841239267667715
4.01926900e+04,3.79999747,-2.18154257e-11,3.65199618,1.24940082,-1.34509847,6.38454384e-01,5.54542116e-05,6.24140249,-2.19544167,-1,-0.9833547642028209
4.21042288e+04,3.79999743,-2.12475395e-11,3.65253002,1.24487121,-1.34509847,6.38454049e-01,5.64597693e-05,6.24586269,-2.18210773,-1,-0.9825480073202103
4.41092851e+04,3.79999739,-2.07173097e-11,3.65306521,1.24053835,-1.34509847,6.38453635e-01,5.77018900e-05,6.25012929,-2.16935454,-1,-0.9817017817714291
4.62110593e+04,3.79999735,-2.02280111e-11,3.65357289,1.23633314,-1.34509847,6.38453235e-01,5.89023193e-05,6.25427049,-2.15697630,-1,-0.9808147368411648
4.84128396e+04,3.79999731,-1.97516815e-11,3.65409597,1.23217456,-1.34509847,6.38452956e-01,5.97386647e-05,6.25836543,-2.14473430,-1,-0.979885484758486
5.07167321e+04,3.79999726,-1.92847805e-11,3.65457199,1.22798006,-1.34509847,6.38452647e-01,6.06653912e-05,6.26249642,-2.13238327,-1,-0.9789131366527767
5.31298067e+04,3.79999722,-1.88095176e-11,3.65507924,1.22365021,-1.34509847,6.38452261e-01,6.18232238e-05,6.26676087,-2.11963464,-1,-0.9778947087025814
5.56579424e+04,3.79999717,-1.83224475e-11,3.65561669,1.21907162,-1.34509847,6.38451822e-01,6.31402939e-05,6.27127080,-2.10615120,-1,-0.9768277197007633
5.83002403e+04,3.79999712,-1.78150046e-11,3.65621652,1.21414363,-1.34509847,6.38451406e-01,6.43894833e-05,6.27612552,-2.09163844,-1,-0.9757125490242736
6.10603062e+04,3.79999707,-1.72745274e-11,3.65688654,1.20875503,-1.34509847,6.38450948e-01,6.57622259e-05,6.28143457,-2.07576620,-1,-0.9745476748604409
6.39387319e+04,3.79999702,-1.66891200e-11,3.65757508,1.20280450,-1.34509847,6.38450498e-01,6.71113107e-05,6.28729784,-2.05823889,-1,-0.9733328474425731
6.69445907e+04,3.79999698,-1.60581614e-11,3.65841300,1.19615238,-1.34509847,6.38450073e-01,6.83889151e-05,6.29385280,-2.03864165,-1,-0.9720642374227003
7.00693904e+04,3.79999693,-1.53837835e-11,3.65926961,1.18876929,-1.34509847,6.38449741e-01,6.93839410e-05,6.30112905,-2.01688763,-1,-0.9707454288979901
7.33200510e+04,3.79999688,-1.46641929e-11,3.66021294,1.18061645,-1.34509847,6.38449460e-01,7.02256891e-05,6.30916513,-1.99286481,-1,-0.9693735013116491
7.66996061e+04,3.79999683,-1.39226186e-11,3.66124252,1.17177872,-1.34509847,6.38449246e-01,7.08678087e-05,6.31787716,-1.96682447,-1,-0.9679471743456013
8.02174707e+04,3.79999678,-1.31812681e-11,3.66234656,1.16243282,-1.34509847,6.38449110e-01,7.12752804e-05,6.32706938,-1.93925137,-1,-0.966462474438834
8.38816620e+04,3.79999674,-1.24595483e-11,3.66346442,1.15285107,-1.34556758,6.38500729e-01,7.15315941e-05,6.33526057,-1.90893610,-1,-0.964916017965925
8.77123450e+04,3.79999669,-1.17824509e-11,3.66460521,1.14325674,-1.34575529,6.38527389e-01,7.16307743e-05,6.34363517,-1.87809650,-1,-0.9632992943737335
9.17211371e+04,3.79999665,-1.11445331e-11,3.66571671,1.13373855,-1.34603446,6.38559923e-01,7.16482946e-05,6.35199209,-1.84775874,-1,-0.9616074005876226
9.59189085e+04,3.79999660,-1.05524979e-11,3.66685082,1.12430943,-1.34618563,6.38570231e-01,7.16551665e-05,6.36034871,-1.81771817,-1,-0.9598357488855616
1.00310440e+05,3.79999656,-9.99187582e-12,3.66792424,1.11498650,-1.34622019,6.38572066e-01,7.16575601e-05,6.36867630,-1.78793434,-1,-0.9579823215510883
1.04908766e+05,3.79999651,-9.46787373e-12,3.66899174,1.10576343,-1.34628071,6.38572220e-01,7.16582381e-05,6.37696147,-1.75835773,-1,-0.9560416174706966
1.09722457e+05,3.79999647,-8.97632539e-12,3.67003809,1.09663865,-1.34638541,6.38577971e-01,7.16583153e-05,6.38519523,-1.72898000,-1,-0.9540100195010344
1.14761799e+05,3.79999642,-8.51500978e-12,3.67109074,1.08760570,-1.34647696,6.38580292e-01,7.16583160e-05,6.39337533,-1.69974756,-1,-0.9518831864792152
1.20034680e+05,3.79999638,-8.08047945e-12,3.67211279,1.07866483,-1.34648368,6.38579228e-01,7.16583347e-05,6.40149495,-1.67064896,-1,-0.9496577893081316
1.25555250e+05,3.79999634,-7.67430801e-12,3.67315504,1.06980593,-1.34617473,6.38539662e-01,7.16588774e-05,6.40955879,-1.64163856,-1,-0.9473278560400058
1.31336676e+05,3.79999629,-7.29119902e-12,3.67418434,1.06103156,-1.34614435,6.38531786e-01,7.16589831e-05,6.41755873,-1.61270171,-1,-0.9448878295980608
1.37384575e+05,3.79999625,-6.92933833e-12,3.67517612,1.05234239,-1.34627503,6.38540379e-01,7.16588575e-05,6.42549706,-1.58383477,-1,-0.9423353393511542
1.43717386e+05,3.79999621,-6.58958835e-12,3.67622119,1.04372695,-1.34601376,6.38515637e-01,7.16591940e-05,6.43338783,-1.55499410,-1,-0.9396626031971603
1.50345149e+05,3.79999617,-6.26954031e-12,3.67717974,1.03519793,-1.34564913,6.38479923e-01,7.16596893e-05,6.44122532,-1.52620735,-1,-0.9368653837964547
1.57283358e+05,3.79999612,-5.96722348e-12,3.67818641,1.02674053,-1.34620234,6.38522675e-01,7.16590718e-05,6.44902817,-1.49742339,-1,-0.9339371419717317
1.64545237e+05,3.79999608,-5.68277146e-12,3.67915842,1.01836163,-1.34616107,6.38513009e-01,7.16591947e-05,6.45678656,-1.46865060,-1,-0.9308722965896055
1.72146101e+05,3.79999604,-5.41333286e-12,3.68011194,1.01006046,-1.34619951,6.38512845e-01,7.16591858e-05,6.46449722,-1.43986697,-1,-0.9276643840189651
1.80103312e+05,3.79999600,-5.16070063e-12,3.68109875,1.00182889,-1.34616130,6.38510463e-01,7.16592205e-05,6.47216996,-1.41104342,-1,-0.9243060767009893
1.88435246e+05,3.79999596,-4.92087583e-12,3.68206453,9.93674752e-01,-1.34627675,6.38509817e-01,7.16592097e-05,6.47980110,-1.38218089,-1,-0.920789619122437
1.97149522e+05,3.79999591,-4.69401303e-12,3.68298988,9.85599538e-01,-1.34625507,6.38507750e-01,7.16592174e-05,6.48739276,-1.35327067,-1,-0.9171117957165149
2.06281111e+05,3.79999587,-4.48068432e-12,3.68396040,9.77596267e-01,-1.34597248,6.38488932e-01,7.16595218e-05,6.49495623,-1.32427282,-1,-0.9132578471202735
2.15835214e+05,3.79999583,-4.27889381e-12,3.68492039,9.69668487e-01,-1.34657691,6.38511152e-01,7.16592340e-05,6.50249111,-1.29518698,-1,-0.9092255782736143
2.25841910e+05,3.79999579,-4.08931099e-12,3.68589330,9.61815594e-01,-1.34658790,6.38510904e-01,7.16592225e-05,6.51000190,-1.26598187,-1,-0.9050022944615401
2.36311579e+05,3.79999575,-3.90881465e-12,3.68682203,9.54044906e-01,-1.34680003,6.38514114e-01,7.16591560e-05,6.51748203,-1.23666004,-1,-0.9005836148488613
2.47278496e+05,3.79999571,-3.74052082e-12,3.68782978,9.46344730e-01,-1.34699210,6.38518980e-01,7.16591466e-05,6.52494352,-1.20716889,-1,-0.8959550738164904
2.58758141e+05,3.79999567,-3.57941299e-12,3.68877448,9.38732533e-01,-1.34741923,6.38526768e-01,7.16590242e-05,6.53237681,-1.17752626,-1,-0.8911101380957632
2.70767871e+05,3.79999562,-3.42704085e-12,3.68970260,9.31208855e-01,-1.34712184,6.38515157e-01,7.16591748e-05,6.53979155,-1.14770668,-1,-0.8860414822380873
2.83359354e+05,3.79999558,-3.28532733e-12,3.69073397,9.23763928e-01,-1.34764079,6.38520811e-01,7.16590755e-05,6.54720712,-1.11764804,-1,-0.8807272999821353
