star_age,star_mass,star_mdot,log_Teff,log_R,log_surf_z,surface_h1,surface_he3,log_center_T,log_center_Rho,phase,x
1.07702711e+02,6.99966225e+01,-2.52858721e-05,3.99680784,2.42194875,-1.34509850,6.38455371e-01,5.25064651e-05,6.56629038,-2.82973943,-1,-1.0
1.10728456e+02,6.99965502e+01,-2.48592113e-05,3.99831034,2.41784094,-1.34509850,6.38455371e-01,5.25064651e-05,6.56764226,-2.82567625,-1,-0.999762651851677
1.13754200e+02,6.99964779e+01,-2.44325505e-05,3.99981284,2.41373312,-1.34509850,6.38455371e-01,5.25064651e-05,6.56899413,-2.82161306,-1,-0.9995253037817969
1.16779945e+02,6.99964055e+01,-2.40058898e-05,4.00131533,2.40962531,-1.34509850,6.38455371e-01,5.25064651e-05,6.57034600,-2.81754988,-1,-0.999287955633474
1.20013094e+02,6.99963327e+01,-2.35246728e-05,4.00295517,2.40529168,-1.34509850,6.38455371e-01,5.25064651e-05,6.57176817,-2.81326374,-1,-0.9990343381183158
1.23315310e+02,6.99962597e+01,-2.30252881e-05,4.00464074,2.40088286,-1.34509850,6.38455371e-01,5.25064651e-05,6.57321375,-2.80890337,-1,-0.9987753027888474
1.26617526e+02,6.99961866e+01,-2.25259035e-05,4.00632632,2.39647403,-1.34509850,6.38455371e-01,5.25064651e-05,6.57465934,-2.80454299,-1,-0.9985162674593789
1.29979353e+02,6.99961145e+01,-2.19611349e-05,4.00802793,2.39202300,-1.34509850,6.38455372e-01,5.25064651e-05,6.57612445,-2.80012102,-1,-0.9982525560714622
1.33618534e+02,6.99960463e+01,-2.10921519e-05,4.00980414,2.38737563,-1.34509850,6.38455372e-01,5.25064651e-05,6.57768046,-2.79541242,-1,-0.997967088237338
1.37257714e+02,6.99959781e+01,-2.02231689e-05,4.01158035,2.38272826,-1.34509850,6.38455372e-01,5.25064651e-05,6.57923647,-2.79070383,-1,-0.9976816204816567
1.40896895e+02,6.99959099e+01,-1.93541859e-05,4.01335657,2.37808089,-1.34509850,6.38455372e-01,5.25064651e-05,6.58079247,-2.78599523,-1,-0.9973961526475325
1.44637943e+02,6.99958439e+01,-1.83979012e-05,4.01510504,2.37344959,-1.34509850,6.38455372e-01,5.25064650e-05,6.58238234,-2.78118092,-1,-0.9971026940726733
1.48633296e+02,6.99957830e+01,-1.72236745e-05,4.01678426,2.36885840,-1.34509850,6.38455372e-01,5.25064650e-05,6.58405672,-2.77610270,-1,-0.9967892870815201
1.52628649e+02,6.99957221e+01,-1.60494477e-05,4.01846349,2.36426721,-1.34509850,6.38455372e-01,5.25064650e-05,6.58573111,-2.77102447,-1,-0.996475880090367
1.56716236e+02,6.99956630e+01,-1.49631177e-05,4.02017292,2.35963141,-1.34509850,6.38455372e-01,5.25064650e-05,6.58743457,-2.76585489,-1,-0.9961552379987304
1.61014029e+02,6.99956076e+01,-1.40771089e-05,4.02195119,2.35489394,-1.34509850,6.38455372e-01,5.25064650e-05,6.58920432,-2.76047711,-1,-0.9958181067433122
1.65311823e+02,6.99955523e+01,-1.31911001e-05,4.02372947,2.35015647,-1.34509851,6.38455372e-01,5.25064650e-05,6.59097406,-2.75509933,-1,-0.9954809754094511
1.69811527e+02,6.99955004e+01,-1.24379033e-05,4.02560239,2.34525299,-1.34509851,6.38455373e-01,5.25064650e-05,6.59280304,-2.74953538,-1,-0.9951280056739309
1.74426352e+02,6.99954503e+01,-1.17604307e-05,4.02752929,2.34025484,-1.34509851,6.38455373e-01,5.25064650e-05,6.59466578,-2.74386529,-1,-0.9947660055157601
1.79041177e+02,6.99954002e+01,-1.10829581e-05,4.02945619,2.33525670,-1.34509851,6.38455373e-01,5.25064650e-05,6.59652853,-2.73819520,-1,-0.9944040053575893
1.83910742e+02,6.99953546e+01,-1.04130644e-05,4.03143254,2.33014271,-1.34509851,6.38455373e-01,5.25064650e-05,6.59846367,-2.73229624,-1,-0.9940220226604723
1.88914410e+02,6.99953113e+01,-9.74716037e-06,4.03343493,2.32496773,-1.34509851,6.38455374e-01,5.25064650e-05,6.60043692,-2.72627679,-1,-0.9936295205379791
1.93918078e+02,6.99952680e+01,-9.08125634e-06,4.03543733,2.31979276,-1.34509851,6.38455374e-01,5.25064650e-05,6.60241017,-2.72025735,-1,-0.9932370184154861
1.99071974e+02,6.99952278e+01,-8.34474312e-06,4.03739854,2.31466554,-1.34509851,6.38455374e-01,5.25064650e-05,6.60442769,-2.71409892,-1,-0.9928327319761963
2.04498727e+02,6.99951931e+01,-7.47998368e-06,4.03928497,2.30962508,-1.34509851,6.38455374e-01,5.25064650e-05,6.60652560,-2.70768807,-1,-0.9924070418483248
2.09925479e+02,6.99951585e+01,-6.61522425e-06,4.04117139,2.30458461,-1.34509851,6.38455374e-01,5.25064650e-05,6.60862352,-2.70127722,-1,-0.9919813517988965
2.15638193e+02,6.99951283e+01,-6.01799777e-06,4.04317723,2.29938046,-1.34509851,6.38455374e-01,5.25064650e-05,6.61079624,-2.69462829,-1,-0.9915332300669597
2.21453390e+02,6.99950997e+01,-5.51665117e-06,4.04522587,2.29411765,-1.34509852,6.38455374e-01,5.25064649e-05,6.61299578,-2.68789405,-1,-0.9910770692734747
2.27268587e+02,6.99950711e+01,-5.01530457e-06,4.04727450,2.28885484,-1.34509852,6.38455375e-01,5.25064649e-05,6.61519531,-2.68115980,-1,-0.9906209084799897
2.33473662e+02,6.99950411e+01,-4.89267924e-06,4.04935731,2.28351547,-1.34509852,6.38455375e-01,5.25064649e-05,6.61749459,-2.67410827,-1,-0.9901341645338029
2.39774142e+02,6.99950107e+01,-4.86272944e-06,4.05144848,2.27815735,-1.34509852,6.38455375e-01,5.25064649e-05,6.61981827,-2.66697910,-1,-0.9896399367447639
2.46074623e+02,6.99949804e+01,-4.83277964e-06,4.05353965,2.27279924,-1.34509852,6.38455375e-01,5.25064649e-05,6.62214195,-2.65984994,-1,-0.9891457088772819
2.52660940e+02,6.99949490e+01,-4.79638423e-06,4.05558321,2.26750846,-1.34509852,6.38455376e-01,5.25064649e-05,6.62454242,-2.65247811,-1,-0.9886290592110946
2.59476302e+02,6.99949169e+01,-4.75482389e-06,4.05758860,2.26227164,-1.34509852,6.38455375e-01,5.25064649e-05,6.62700443,-2.64491184,-1,-0.9880944425957319
2.66299052e+02,6.99948847e+01,-4.71330757e-06,4.05959479,2.25703398,-1.34509852,6.38455375e-01,5.25064649e-05,6.62946830,-2.63733965,-1,-0.9875592464443805
2.73553296e+02,6.99948512e+01,-4.67436156e-06,4.06164733,2.25174764,-1.34509852,6.38455375e-01,5.25064649e-05,6.63204061,-2.62942225,-1,-0.9869902026614831
2.80807540e+02,6.99948176e+01,-4.63541556e-06,4.06369988,2.24646130,-1.34509852,6.38455376e-01,5.25064649e-05,6.63461291,-2.62150484,-1,-0.9864211588785857
2.88389808e+02,6.99947830e+01,-4.60417704e-06,4.06583941,2.24104503,-1.34509852,6.38455376e-01,5.25064648e-05,6.63726055,-2.61334639,-1,-0.9858263839488118
2.96097503e+02,6.99947479e+01,-4.57588568e-06,4.06801221,2.23557908,-1.34509853,6.38455377e-01,5.25064648e-05,6.63993701,-2.60509576,-1,-0.9852217701640784
3.03880425e+02,6.99947126e+01,-4.54810857e-06,4.07019016,2.23010563,-1.34509853,6.38455377e-01,5.25064648e-05,6.64263048,-2.59679067,-1,-0.9846112553569013
3.12153001e+02,6.99946755e+01,-4.52367873e-06,4.07240171,2.22458329,-1.34509853,6.38455378e-01,5.25064647e-05,6.64543477,-2.58813105,-1,-0.983962330680347
3.20425577e+02,6.99946384e+01,-4.49924889e-06,4.07461326,2.21906096,-1.34509853,6.38455379e-01,5.25064646e-05,6.64823906,-2.57947143,-1,-0.9833134060037926
3.28840239e+02,6.99946009e+01,-4.47317567e-06,4.07681575,2.21355669,-1.34509853,6.38455380e-01,5.25064646e-05,6.65107734,-2.57070378,-1,-0.9826533356923607
3.37711945e+02,6.99945618e+01,-4.44181620e-06,4.07898910,2.20811054,-1.34509853,6.38455381e-01,5.25064645e-05,6.65402498,-2.56158863,-1,-0.9819574135338293
3.46583651e+02,6.99945227e+01,-4.41045672e-06,4.08116245,2.20266439,-1.34509854,6.38455381e-01,5.25064644e-05,6.65697262,-2.55247347,-1,-0.9812614913752977
3.55926807e+02,6.99944820e+01,-4.38206871e-06,4.08335238,2.19722735,-1.34509854,6.38455382e-01,5.25064644e-05,6.66002732,-2.54301786,-1,-0.9805285873215548
3.65332712e+02,6.99944411e+01,-4.35407620e-06,4.08554452,2.19179153,-1.34509854,6.38455382e-01,5.25064644e-05,6.66309627,-2.53351695,-1,-0.9797907610556098
3.75150090e+02,6.99943988e+01,-4.33178894e-06,4.08778728,2.18631271,-1.34509854,6.38455382e-01,5.25064644e-05,6.66625113,-2.52374153,-1,-0.9790206576629952
3.85116080e+02,6.99943560e+01,-4.31156224e-06,4.09004831,2.18081837,-1.34509855,6.38455383e-01,5.25064644e-05,6.66943702,-2.51386698,-1,-0.9782388967172759
3.95290567e+02,6.99943124e+01,-4.29247045e-06,4.09231509,2.17533570,-1.34509855,6.38455383e-01,5.25064644e-05,6.67266619,-2.50385486,-1,-0.977440780666655
4.05946794e+02,6.99942671e+01,-4.27600088e-06,4.09459514,2.16987997,-1.34509855,6.38455384e-01,5.25064645e-05,6.67599539,-2.49352488,-1,-0.9766048755435996
4.16603021e+02,6.99942218e+01,-4.25953132e-06,4.09687518,2.16442424,-1.34509856,6.38455384e-01,5.25064645e-05,6.67932459,-2.48319490,-1,-0.9757689704205442
4.27675686e+02,6.99941749e+01,-4.24224263e-06,4.09913869,2.15903601,-1.34509856,6.38455384e-01,5.25064645e-05,6.68274560,-2.47257435,-1,-0.974900398701926
4.39059914e+02,6.99941270e+01,-4.22434110e-06,4.10138984,2.15369828,-1.34509856,6.38455384e-01,5.25064645e-05,6.68623529,-2.46173640,-1,-0.9740073870846594
4.50651476e+02,6.99940783e+01,-4.20782807e-06,4.10364512,2.14838161,-1.34509856,6.38455383e-01,5.25064645e-05,6.68976887,-2.45075997,-1,-0.973098111591559
4.62693954e+02,6.99940279e+01,-4.19433483e-06,4.10590939,2.14311077,-1.34509856,6.38455384e-01,5.25064645e-05,6.69339788,-2.43948235,-1,-0.9721534649493205
4.74901319e+02,6.99939769e+01,-4.18233410e-06,4.10819004,2.13783960,-1.34509856,6.38455384e-01,5.25064645e-05,6.69705940,-2.42810195,-1,-0.9711958840961248
4.87631814e+02,6.99939238e+01,-4.17506859e-06,4.11052265,2.13256738,-1.34509857,6.38455386e-01,5.25064644e-05,6.70082406,-2.41639544,-1,-0.970197267419741
5.00362308e+02,6.99938708e+01,-4.16780309e-06,4.11285526,2.12729516,-1.34509857,6.38455388e-01,5.25064643e-05,6.70458872,-2.40468893,-1,-0.9691986508218001
5.13838692e+02,6.99938147e+01,-4.16555414e-06,4.11521414,2.12210958,-1.34509858,6.38455390e-01,5.25064642e-05,6.70850115,-2.39251904,-1,-0.9681415244649891
5.27413084e+02,6.99937582e+01,-4.16396436e-06,4.11757646,2.11693537,-1.34509859,6.38455391e-01,5.25064641e-05,6.71243299,-2.38028827,-1,-0.9670767100785124
5.41191935e+02,6.99937008e+01,-4.16420342e-06,4.11993940,2.11179311,-1.34509860,6.38455393e-01,5.25064641e-05,6.71640802,-2.36792250,-1,-0.9659958573394785
5.55645123e+02,6.99936404e+01,-4.17047428e-06,4.12230436,2.10675623,-1.34509859,6.38455393e-01,5.25064640e-05,6.72052548,-2.35511148,-1,-0.9648621076648815
5.70127420e+02,6.99935799e+01,-4.17696660e-06,4.12466973,2.10172443,-1.34509859,6.38455393e-01,5.25064640e-05,6.72464896,-2.34228178,-1,-0.9637260745965253
5.85382792e+02,6.99935158e+01,-4.18934010e-06,4.12704614,2.09682767,-1.34509860,6.38455393e-01,5.25064640e-05,6.72893224,-2.32895585,-1,-0.9625293992996388
6.00660420e+02,6.99934516e+01,-4.20181561e-06,4.12942299,2.09193552,-1.34509860,6.38455394e-01,5.25064639e-05,6.73321995,-2.31561630,-1,-0.9613309781780415
6.16775282e+02,6.99933833e+01,-4.21812821e-06,4.13181595,2.08721674,-1.34509861,6.38455397e-01,5.25064638e-05,6.73767400,-2.30176447,-1,-0.9600668820112528
6.32890143e+02,6.99933150e+01,-4.23444081e-06,4.13420891,2.08249796,-1.34509862,6.38455400e-01,5.25064636e-05,6.74212805,-2.28791264,-1,-0.9588027859229069
6.49763844e+02,6.99932426e+01,-4.25712972e-06,4.13661814,2.07793423,-1.34509864,6.38455403e-01,5.25064635e-05,6.74673435,-2.27359501,-1,-0.9574791642404105
6.66901273e+02,6.99931689e+01,-4.28203465e-06,4.13903303,2.07342439,-1.34509865,6.38455407e-01,5.25064633e-05,6.75139357,-2.25911549,-1,-0.9561348549743731
6.84208267e+02,6.99930941e+01,-4.31075685e-06,4.14145612,2.06893452,-1.34509866,6.38455410e-01,5.25064631e-05,6.75608839,-2.24452765,-1,-0.9547772445415915
7.02373017e+02,6.99930141e+01,-4.35878901e-06,4.14392071,2.06454571,-1.34509866,6.38455409e-01,5.25064631e-05,6.76096333,-2.22939183,-1,-0.9533523492588596
7.20550886e+02,6.99929340e+01,-4.40693949e-06,4.14638603,2.06015845,-1.34509866,6.38455409e-01,5.25064631e-05,6.76584099,-2.21424783,-1,-0.9519264248840007
7.39645504e+02,6.99928477e+01,-4.46335806e-06,4.14890253,2.05587896,-1.34509866,6.38455409e-01,5.25064631e-05,6.77090884,-2.19853210,-1,-0.9504285880784422
7.58785636e+02,6.99927611e+01,-4.51974388e-06,4.15142092,2.05160694,-1.34509866,6.38455410e-01,5.25064630e-05,6.77598593,-2.18278893,-1,-0.948927181023698
7.78878716e+02,6.99926679e+01,-4.57544387e-06,4.15397918,2.04749119,-1.34509868,6.38455415e-01,5.25064628e-05,6.78125642,-2.16647140,-1,-0.9473510219844844
7.98971797e+02,6.99925746e+01,-4.63114386e-06,4.15653743,2.04337544,-1.34509870,6.38455419e-01,5.25064626e-05,6.78652692,-2.15015386,-1,-0.945774862866828
8.19996325e+02,6.99924740e+01,-4.69729281e-06,4.15915293,2.03936679,-1.34509872,6.38455424e-01,5.25064624e-05,6.79198676,-2.13327867,-1,-0.9441256383650394
8.41252640e+02,6.99923716e+01,-4.76604193e-06,4.16178268,2.03538479,-1.34509874,6.38455429e-01,5.25064621e-05,6.79749373,-2.11626472,-1,-0.9424582318237017
8.62760613e+02,6.99922666e+01,-4.84772740e-06,4.16447330,2.03133723,-1.34509875,6.38455431e-01,5.25064620e-05,6.80305226,-2.09910064,-1,-0.9407710845043703
8.85006372e+02,6.99921540e+01,-4.96733848e-06,4.16734240,2.02709743,-1.34509874,6.38455428e-01,5.25064622e-05,6.80876199,-2.08149642,-1,-0.9390260631272587
9.07433254e+02,6.99920393e+01,-5.08918003e-06,4.17024362,2.02283241,-1.34509873,6.38455425e-01,5.25064623e-05,6.81450868,-2.06378587,-1,-0.9372668339406095
9.30558705e+02,6.99919168e+01,-5.21962422e-06,4.17326876,2.01847009,-1.34509872,6.38455423e-01,5.25064624e-05,6.82039790,-2.04566520,-1,-0.935452806990558
9.54018880e+02,6.99917902e+01,-5.35559433e-06,4.17633054,2.01410402,-1.34509872,6.38455422e-01,5.25064625e-05,6.82635593,-2.02734680,-1,-0.9336125233263421
9.78001986e+02,6.99916573e+01,-5.50019750e-06,4.17944955,2.00973207,-1.34509871,6.38455420e-01,5.25064627e-05,6.83242144,-2.00871949,-1,-0.9317312194490711
1.00256154e+03,6.99915167e+01,-5.65583071e-06,4.18263380,2.00534947,-1.34509871,6.38455419e-01,5.25064627e-05,6.83860473,-1.98975674,-1,-0.9298046973312001
1.02745412e+03,6.99913716e+01,-5.81804403e-06,4.18585515,2.00096098,-1.34509871,6.38455419e-01,5.25064627e-05,6.84485595,-1.97060150,-1,-0.9278520516951728
1.05302751e+03,6.99912165e+01,-5.99467008e-06,4.18914965,1.99656180,-1.34509871,6.38455419e-01,5.25064627e-05,6.85124540,-1.95105880,-1,-0.9258460013628278
1.07908243e+03,6.99910539e+01,-6.18248818e-06,4.19248328,1.99217302,-1.34509871,6.38455420e-01,5.25064627e-05,6.85773270,-1.93124076,-1,-0.9238021784310531
1.10557815e+03,6.99908845e+01,-6.37540353e-06,4.19584190,1.98781337,-1.34509871,6.38455421e-01,5.25064626e-05,6.86430963,-1.91117089,-1,-0.921723777878302
1.13290227e+03,6.99907026e+01,-6.55538211e-06,4.19920012,1.98359433,-1.34509874,6.38455427e-01,5.25064623e-05,6.87105537,-1.89062868,-1,-0.9195803952447507
1.16068963e+03,6.99905127e+01,-6.74401040e-06,4.20257994,1.97940169,-1.34509876,6.38455433e-01,5.25064620e-05,6.87789266,-1.86983540,-1,-0.9174006747320228
1.18908152e+03,6.99903126e+01,-6.94392635e-06,4.20598797,1.97524349,-1.34509879,6.38455439e-01,5.25064617e-05,6.88484945,-1.84871448,-1,-0.9151735331457724
1.21782415e+03,6.99901030e+01,-7.19583406e-06,4.20950251,1.97091859,-1.34509876,6.38455440e-01,5.25064612e-05,6.89187112,-1.82742199,-1,-0.9129188785042107
1.24696885e+03,6.99898826e+01,-7.50734124e-06,4.21313913,1.96640258,-1.34509867,6.38455435e-01,5.25064606e-05,6.89896717,-1.80593284,-1,-0.9106326843343687
1.27672714e+03,6.99896460e+01,-7.82691416e-06,4.21688891,1.96173071,-1.34509860,6.38455411e-01,5.25064621e-05,6.90617747,-1.78413886,-1,-0.9082983583985222
1.30686115e+03,6.99893988e+01,-8.15464387e-06,4.22070235,1.95697203,-1.34509856,6.38455392e-01,5.25064635e-05,6.91345673,-1.76216324,-1,-0.905934559904252
1.33743798e+03,6.99891390e+01,-8.49388375e-06,4.22458750,1.95211610,-1.34509855,6.38455386e-01,5.25064639e-05,6.92081666,-1.73997648,-1,-0.9035360253343904
1.36868252e+03,6.99888590e+01,-8.85399248e-06,4.22856749,1.94712919,-1.34509854,6.38455384e-01,5.25064641e-05,6.92829609,-1.71747700,-1,-0.9010851136699233
1.40038962e+03,6.99885642e+01,-9.22994236e-06,4.23260638,1.94205777,-1.34509853,6.38455382e-01,5.25064642e-05,6.93585631,-1.69476790,-1,-0.8985979174674372
1.43258822e+03,6.99882530e+01,-9.62334369e-06,4.23670456,1.93689854,-1.34509852,6.38455380e-01,5.25064643e-05,6.94350121,-1.67183791,-1,-0.8960721665900196
1.46529931e+03,6.99879241e+01,-1.00356059e-05,4.24086104,1.93164935,-1.34509852,6.38455379e-01,5.25064643e-05,6.95123298,-1.64868149,-1,-0.8935062145216445
1.49855123e+03,6.99875759e+01,-1.04680970e-05,4.24507022,1.92631733,-1.34509851,6.38455378e-01,5.25064644e-05,6.95905556,-1.62529021,-1,-0.8908978381911263
1.53273194e+03,6.99872005e+01,-1.09290922e-05,4.24923178,1.92112130,-1.34509851,6.38455377e-01,5.25064644e-05,6.96704985,-1.60142829,-1,-0.8882166048992051
1.56765597e+03,6.99868000e+01,-1.13400391e-05,4.25341891,1.91589177,-1.34509851,6.38455377e-01,5.25064645e-05,6.97516349,-1.57725591,-1,-0.8854770634466123
1.60309970e+03,6.99863784e+01,-1.17571837e-05,4.25766871,1.91052793,-1.34509851,6.38455376e-01,5.25064645e-05,6.98334865,-1.55290880,-1,-0.8826967552299055
1.63891252e+03,6.99859412e+01,-1.21854821e-05,4.26197037,1.90505053,-1.34509850,6.38455376e-01,5.25064645e-05,6.99158263,-1.52844455,-1,-0.8798874945310615
1.67533757e+03,6.99854672e+01,-1.28109362e-05,4.26641506,1.89925498,-1.34509850,6.38455376e-01,5.25064645e-05,6.99988843,-1.50381662,-1,-0.8770302087485281
1.71216903e+03,6.99849690e+01,-1.34428805e-05,4.27093503,1.89329152,-1.34509850,6.38455376e-01,5.25064645e-05,7.00824105,-1.47908054,-1,-0.8741410429956206
1.74947605e+03,6.99844424e+01,-1.40770441e-05,4.27553329,1.88715083,-1.34509850,6.38455375e-01,5.25064645e-05,7.01664705,-1.45422078,-1,-0.8712145729472696
1.78743052e+03,6.99838829e+01,-1.47253914e-05,4.28016825,1.88092146,-1.34509850,6.38455375e-01,5.25064645e-05,7.02513860,-1.42914368,-1,-0.8682373150570377
1.82626722e+03,6.99832847e+01,-1.53712866e-05,4.28478655,1.87471428,-1.34509850,6.38455375e-01,5.25064645e-05,7.03375924,-1.40372361,-1,-0.8651908525058397
1.86546899e+03,6.99826585e+01,-1.59279682e-05,4.28951422,1.86823557,-1.34509849,6.38455375e-01,5.25064645e-05,7.04239087,-1.37830926,-1,-0.8621157528128771
1.90547397e+03,6.99819872e+01,-1.65119935e-05,4.29430848,1.86154768,-1.34509849,6.38455375e-01,5.25064645e-05,7.05109617,-1.35272556,-1,-0.8589776470152315
1.94577000e+03,6.99812897e+01,-1.72199674e-05,4.29916962,1.85468528,-1.34509849,6.38455375e-01,5.25064644e-05,7.05981440,-1.32712488,-1,-0.8558167104177103
1.98647862e+03,6.99805527e+01,-1.80856484e-05,4.30413073,1.84756467,-1.34509849,6.38455375e-01,5.25064644e-05,7.06854785,-1.30150860,-1,-0.852623409072824
2.02775421e+03,6.99797716e+01,-1.89223168e-05,4.30915791,1.84026018,-1.34509849,6.38455376e-01,5.25064644e-05,7.07732123,-1.27580363,-1,-0.8493856329689428
2.07006097e+03,6.99789354e+01,-1.97639147e-05,4.31415214,1.83298901,-1.34509849,6.38455376e-01,5.25064644e-05,7.08622465,-1.24974784,-1,-0.8460669689217266
2.11225613e+03,6.99780670e+01,-2.05817669e-05,4.31934904,1.82520956,-1.34509849,6.38455376e-01,5.25064644e-05,7.09501538,-1.22404557,-1,-0.8427570590997848
2.15593438e+03,6.99771303e+01,-2.14327907e-05,4.32442918,1.81763120,-1.34509849,6.38455376e-01,5.25064643e-05,7.10401555,-1.19775563,-1,-0.8393308114287195
2.19930678e+03,6.99761686e+01,-2.21328234e-05,4.32973474,1.80947160,-1.34509849,6.38455377e-01,5.25064643e-05,7.11285098,-1.17197151,-1,-0.835928555512136
2.24385735e+03,6.99751387e+01,-2.28699113e-05,4.33502109,1.80125347,-1.34509849,6.38455377e-01,5.25064643e-05,7.12179224,-1.14590025,-1,-0.8324338805490333
2.28860089e+03,6.99740705e+01,-2.37999446e-05,4.34039773,1.79278460,-1.34509849,6.38455377e-01,5.25064642e-05,7.13069413,-1.11995695,-1,-0.8289240684636082
2.33389555e+03,6.99729453e+01,-2.48374961e-05,4.34583474,1.78412143,-1.34509849,6.38455378e-01,5.25064642e-05,7.13960356,-1.09400632,-1,-0.8253710249388174
2.37993166e+03,6.99717573e+01,-2.58286917e-05,4.35130042,1.77532932,-1.34509849,6.38455378e-01,5.25064641e-05,7.14854821,-1.06796480,-1,-0.8217598199415382
2.42658447e+03,6.99705091e+01,-2.67964369e-05,4.35681499,1.76635464,-1.34509849,6.38455378e-01,5.25064641e-05,7.15749802,-1.04192005,-1,-0.8181002392209015
2.47370321e+03,6.99692041e+01,-2.77542943e-05,4.36239918,1.75714489,-1.34509849,6.38455379e-01,5.25064640e-05,7.16642041,-1.01596676,-1,-0.8144041096097441
