star_age,star_mass,star_mdot,log_Teff,log_R,log_surf_z,surface_h1,surface_he3,log_center_T,log_center_Rho,phase,x
1.86643689e+02,8.49964965e+01,-1.43823071e-05,4.19627967,2.06361999,-1.34509847,6.38455367e-01,5.25064652e-05,6.82935950,-2.09419450,-1,-1.0
1.91217780e+02,8.49964318e+01,-1.43510533e-05,4.19693234,2.06214280,-1.34509847,6.38455367e-01,5.25064652e-05,6.83071518,-2.09007469,-1,-0.9995793830205588
1.95791870e+02,8.49963672e+01,-1.43197995e-05,4.19758501,2.06066562,-1.34509847,6.38455367e-01,5.25064652e-05,6.83207087,-2.08595489,-1,-0.999158766133074
2.00365960e+02,8.49963026e+01,-1.42885457e-05,4.19823768,2.05918844,-1.34509847,6.38455367e-01,5.25064652e-05,6.83342655,-2.08183508,-1,-0.9987381492455892
2.04940051e+02,8.49962380e+01,-1.42572919e-05,4.19889035,2.05771126,-1.34509847,6.38455367e-01,5.25064652e-05,6.83478224,-2.07771527,-1,-0.998317532266148
2.09514141e+02,8.49961734e+01,-1.42260380e-05,4.19954303,2.05623408,-1.34509847,6.38455367e-01,5.25064652e-05,6.83613793,-2.07359547,-1,-0.9978969153786632
2.14088232e+02,8.49961087e+01,-1.41947842e-05,4.20019570,2.05475690,-1.34509847,6.38455367e-01,5.25064652e-05,6.83749361,-2.06947566,-1,-0.997476298399222
2.18662322e+02,8.49960441e+01,-1.41635304e-05,4.20084837,2.05327972,-1.34509847,6.38455367e-01,5.25064652e-05,6.83884930,-2.06535585,-1,-0.9970556815117372
2.23236412e+02,8.49959795e+01,-1.41322766e-05,4.20150104,2.05180253,-1.34509847,6.38455367e-01,5.25064652e-05,6.84020498,-2.06123605,-1,-0.9966350646242524
2.28569570e+02,8.49959043e+01,-1.41242920e-05,4.20224066,2.05033020,-1.34509847,6.38455367e-01,5.25064652e-05,6.84175910,-2.05651669,-1,-0.996144646569858
2.34048295e+02,8.49958271e+01,-1.41207698e-05,4.20299694,2.04885879,-1.34509847,6.38455367e-01,5.25064652e-05,6.84335126,-2.05168237,-1,-0.9956408426969816
2.39527019e+02,8.49957498e+01,-1.41172477e-05,4.20375323,2.04738738,-1.34509847,6.38455367e-01,5.25064652e-05,6.84494342,-2.04684804,-1,-0.9951370389160616
2.45005743e+02,8.49956726e+01,-1.41137255e-05,4.20450952,2.04591597,-1.34509847,6.38455367e-01,5.25064652e-05,6.84653559,-2.04201371,-1,-0.9946332351351417
2.50484468e+02,8.49955953e+01,-1.41102033e-05,4.20526581,2.04444457,-1.34509847,6.38455367e-01,5.25064652e-05,6.84812775,-2.03717939,-1,-0.9941294312622653
2.55963192e+02,8.49955181e+01,-1.41066811e-05,4.20602209,2.04297316,-1.34509847,6.38455367e-01,5.25064652e-05,6.84971992,-2.03234506,-1,-0.9936256274813453
2.61441916e+02,8.49954408e+01,-1.41031589e-05,4.20677838,2.04150175,-1.34509848,6.38455367e-01,5.25064652e-05,6.85131208,-2.02751073,-1,-0.9931218237004253
2.66920641e+02,8.49953636e+01,-1.40996367e-05,4.20753467,2.04003034,-1.34509848,6.38455367e-01,5.25064652e-05,6.85290425,-2.02267640,-1,-0.9926180198275489
2.73008743e+02,8.49952767e+01,-1.41249228e-05,4.20839256,2.03848215,-1.34509848,6.38455367e-01,5.25064652e-05,6.85465587,-2.01736175,-1,-0.9920581798344728
2.79406580e+02,8.49951850e+01,-1.41648515e-05,4.20930209,2.03689494,-1.34509848,6.38455367e-01,5.25064652e-05,6.85648853,-2.01180295,-1,-0.9914698577232823
2.85804417e+02,8.49950932e+01,-1.42047803e-05,4.21021162,2.03530772,-1.34509848,6.38455367e-01,5.25064652e-05,6.85832120,-2.00624415,-1,-0.9908815356120919
2.92202254e+02,8.49950015e+01,-1.42447091e-05,4.21112116,2.03372050,-1.34509848,6.38455367e-01,5.25064652e-05,6.86015387,-2.00068534,-1,-0.9902932135009015
2.98600091e+02,8.49949097e+01,-1.42846378e-05,4.21203069,2.03213329,-1.34509848,6.38455367e-01,5.25064652e-05,6.86198653,-1.99512654,-1,-0.989704891389711
3.04997928e+02,8.49948179e+01,-1.43245666e-05,4.21294022,2.03054607,-1.34509848,6.38455367e-01,5.25064652e-05,6.86381920,-1.98956774,-1,-0.9891165692785205
3.11855662e+02,8.49947180e+01,-1.43841531e-05,4.21389986,2.02895191,-1.34509848,6.38455367e-01,5.25064652e-05,6.86577114,-1.98365193,-1,-0.9884859566910379
3.19080019e+02,8.49946117e+01,-1.44594103e-05,4.21489945,2.02735220,-1.34509848,6.38455367e-01,5.25064652e-05,6.86781817,-1.97745152,-1,-0.9878216307692875
3.26304376e+02,8.49945053e+01,-1.45346676e-05,4.21589904,2.02575249,-1.34509848,6.38455368e-01,5.25064652e-05,6.86986520,-1.97125110,-1,-0.9871573048475372
3.33528734e+02,8.49943989e+01,-1.46099249e-05,4.21689863,2.02415278,-1.34509848,6.38455368e-01,5.25064652e-05,6.87191223,-1.96505069,-1,-0.9864929788338305
3.40753091e+02,8.49942925e+01,-1.46851822e-05,4.21789823,2.02255307,-1.34509848,6.38455368e-01,5.25064652e-05,6.87395925,-1.95885028,-1,-0.9858286529120801
3.48337322e+02,8.49941791e+01,-1.47744836e-05,4.21895496,2.02090913,-1.34509848,6.38455368e-01,5.25064652e-05,6.87609853,-1.95237501,-1,-0.9851312342698615
3.56339407e+02,8.49940574e+01,-1.48800919e-05,4.22007803,2.01921383,-1.34509848,6.38455368e-01,5.25064652e-05,6.87834490,-1.94558062,-1,-0.9843953912746234
3.64341492e+02,8.49939358e+01,-1.49857001e-05,4.22120111,2.01751853,-1.34509848,6.38455368e-01,5.25064652e-05,6.88059128,-1.93878623,-1,-0.9836595482793853
3.72343577e+02,8.49938142e+01,-1.50913083e-05,4.22232418,2.01582322,-1.34509848,6.38455368e-01,5.25064652e-05,6.88283766,-1.93199184,-1,-0.9829237052841471
3.80345662e+02,8.49936925e+01,-1.51969165e-05,4.22344726,2.01412792,-1.34509848,6.38455368e-01,5.25064652e-05,6.88508403,-1.92519745,-1,-0.982187862288909
3.89090667e+02,8.49935549e+01,-1.53325612e-05,4.22465226,2.01239605,-1.34509848,6.38455368e-01,5.25064652e-05,6.88751867,-1.91784406,-1,-0.9813837030388419
3.97857509e+02,8.49934168e+01,-1.54690888e-05,4.22585968,2.01066311,-1.34509848,6.38455368e-01,5.25064652e-05,6.88995884,-1.91047423,-1,-0.9805775357366877
4.06624350e+02,8.49932786e+01,-1.56056164e-05,4.22706710,2.00893017,-1.34509848,6.38455368e-01,5.25064652e-05,6.89239901,-1.90310441,-1,-0.9797713685264897
4.15391191e+02,8.49931405e+01,-1.57421439e-05,4.22827451,2.00719722,-1.34509848,6.38455368e-01,5.25064652e-05,6.89483917,-1.89573458,-1,-0.9789652013162918
4.24904066e+02,8.49929852e+01,-1.58813372e-05,4.22955912,2.00543180,-1.34509848,6.38455368e-01,5.25064652e-05,6.89746544,-1.88781727,-1,-0.9780904314990098
4.34500211e+02,8.49928281e+01,-1.60208281e-05,4.23085235,2.00366275,-1.34509848,6.38455368e-01,5.25064652e-05,6.90011247,-1.87983885,-1,-0.9772080044716114
4.44096356e+02,8.49926709e+01,-1.61603190e-05,4.23214557,2.00189370,-1.34509848,6.38455368e-01,5.25064652e-05,6.90275951,-1.87186044,-1,-0.9763255774442129
4.53692501e+02,8.49925137e+01,-1.62998099e-05,4.23343880,2.00012465,-1.34509848,6.38455368e-01,5.25064652e-05,6.90540654,-1.86388202,-1,-0.9754431504168145
4.63713374e+02,8.49923458e+01,-1.64531119e-05,4.23478919,1.99830174,-1.34509848,6.38455368e-01,5.25064652e-05,6.90815737,-1.85560013,-1,-0.9745216669280462
4.74284487e+02,8.49921638e+01,-1.66243064e-05,4.23621363,1.99640907,-1.34509848,6.38455368e-01,5.25064651e-05,6.91104265,-1.84692509,-1,-0.9735495853451936
4.84855600e+02,8.49919819e+01,-1.67955009e-05,4.23763807,1.99451639,-1.34509848,6.38455368e-01,5.25064651e-05,6.91392793,-1.83825006,-1,-0.9725775037623411
4.95426713e+02,8.49918000e+01,-1.69666954e-05,4.23906251,1.99262372,-1.34509848,6.38455368e-01,5.25064651e-05,6.91681321,-1.82957503,-1,-0.9716054221794885
5.05997826e+02,8.49916180e+01,-1.71378899e-05,4.24048695,1.99073104,-1.34509848,6.38455368e-01,5.25064651e-05,6.91969849,-1.82089999,-1,-0.9706333405966359
5.17119204e+02,8.49914193e+01,-1.73799013e-05,4.24199969,1.98872742,-1.34509848,6.38455368e-01,5.25064651e-05,6.92271684,-1.81183501,-1,-0.969610658620789
5.28650750e+02,8.49912081e+01,-1.76746995e-05,4.24357825,1.98664109,-1.34509848,6.38455368e-01,5.25064651e-05,6.92583438,-1.80247937,-1,-0.9685502590688764
5.40182296e+02,8.49909968e+01,-1.79694976e-05,4.24515681,1.98455476,-1.34509848,6.38455368e-01,5.25064651e-05,6.92895193,-1.79312372,-1,-0.9674898595169638
5.51713842e+02,8.49907856e+01,-1.82642958e-05,4.24673537,1.98246843,-1.34509848,6.38455368e-01,5.25064651e-05,6.93206947,-1.78376807,-1,-0.9664294599650513
5.63931499e+02,8.49905516e+01,-1.85745470e-05,4.24839973,1.98029110,-1.34509848,6.38455368e-01,5.25064651e-05,6.93535165,-1.77393415,-1,-0.965305968109907
5.76300456e+02,8.49903125e+01,-1.88882059e-05,4.25008302,1.97809370,-1.34509848,6.38455368e-01,5.25064651e-05,6.93867013,-1.76399476,-1,-0.9641685632501921
5.88669414e+02,8.49900735e+01,-1.92018647e-05,4.25176630,1.97589629,-1.34509848,6.38455369e-01,5.25064651e-05,6.94198861,-1.75405537,-1,-0.9630311582985207
6.01526851e+02,8.49898171e+01,-1.95321306e-05,4.25346464,1.97372131,-1.34509848,6.38455369e-01,5.25064651e-05,6.94542239,-1.74378170,-1,-0.9618488345724961
6.14707111e+02,8.49895494e+01,-1.98733715e-05,4.25517293,1.97156114,-1.34509848,6.38455369e-01,5.25064651e-05,6.94893238,-1.73328709,-1,-0.960636825202886
6.27887370e+02,8.49892816e+01,-2.02146124e-05,4.25688122,1.96940097,-1.34509848,6.38455369e-01,5.25064651e-05,6.95244236,-1.72279249,-1,-0.9594248159252321
6.41571997e+02,8.49889938e+01,-2.05747286e-05,4.25869291,1.96708936,-1.34509848,6.38455369e-01,5.25064651e-05,6.95606754,-1.71196696,-1,-0.9581664267778541
6.55467390e+02,8.49886977e+01,-2.09427326e-05,4.26054780,1.96471446,-1.34509848,6.38455369e-01,5.25064651e-05,6.95974085,-1.70100315,-1,-0.9568886563461315
6.69362783e+02,8.49884015e+01,-2.13107365e-05,4.26240270,1.96233957,-1.34509848,6.38455369e-01,5.25064651e-05,6.96341417,-1.69003934,-1,-0.9556108859144089
6.84021060e+02,8.49880739e+01,-2.17171182e-05,4.26428695,1.95997178,-1.34509848,6.38455369e-01,5.25064651e-05,6.96726034,-1.67857731,-1,-0.9542629634101227
6.98683071e+02,8.49877462e+01,-2.21236878e-05,4.26617134,1.95760403,-1.34509848,6.38455369e-01,5.25064651e-05,6.97110736,-1.66711284,-1,-0.9529146975406082
7.13687642e+02,8.49874035e+01,-2.25147034e-05,4.26809653,1.95518286,-1.34509848,6.38455369e-01,5.25064650e-05,6.97502908,-1.65543609,-1,-0.9515349310838781
7.29142648e+02,8.49870413e+01,-2.28852669e-05,4.27007537,1.95269147,-1.34509848,6.38455369e-01,5.25064650e-05,6.97904901,-1.64348022,-1,-0.9501137442423908
7.44597654e+02,8.49866791e+01,-2.32558303e-05,4.27205420,1.95020008,-1.34509848,6.38455369e-01,5.25064650e-05,6.98306895,-1.63152435,-1,-0.9486925574009034
7.60549582e+02,8.49862938e+01,-2.36482824e-05,4.27407153,1.94766093,-1.34509848,6.38455369e-01,5.25064650e-05,6.98719351,-1.61927122,-1,-0.9472256753971078
7.76971320e+02,8.49858866e+01,-2.40614287e-05,4.27612524,1.94507664,-1.34509848,6.38455369e-01,5.25064650e-05,6.99141700,-1.60673703,-1,-0.9457155913531448
7.93393057e+02,8.49854794e+01,-2.44745750e-05,4.27817895,1.94249236,-1.34509848,6.38455369e-01,5.25064650e-05,6.99564050,-1.59420285,-1,-0.9442055074011382
8.10014810e+02,8.49850607e+01,-2.49389726e-05,4.28026135,1.93986091,-1.34509848,6.38455370e-01,5.25064650e-05,6.99990496,-1.58155197,-1,-0.9426770306961758
8.27351508e+02,8.49846012e+01,-2.55865650e-05,4.28244629,1.93706088,-1.34509848,6.38455370e-01,5.25064650e-05,7.00431586,-1.56848399,-1,-0.9410828102169059
8.44688205e+02,8.49841416e+01,-2.62341574e-05,4.28463124,1.93426085,-1.34509848,6.38455370e-01,5.25064650e-05,7.00872676,-1.55541600,-1,-0.9394885898295923
8.62486942e+02,8.49836540e+01,-2.68813764e-05,4.28687640,1.93136280,-1.34509848,6.38455370e-01,5.25064650e-05,7.01323083,-1.54208517,-1,-0.9378518819034036
8.80620195e+02,8.49831460e+01,-2.75283252e-05,4.28916515,1.92839377,-1.34509848,6.38455370e-01,5.25064650e-05,7.01780234,-1.52856403,-1,-0.9361844130873475
8.98938021e+02,8.49826261e+01,-2.81808238e-05,4.29147645,1.92538670,-1.34509848,6.38455370e-01,5.25064650e-05,7.02240962,-1.51494228,-1,-0.9344999716011484
9.17815733e+02,8.49820699e+01,-2.88501577e-05,4.29385615,1.92226419,-1.34509848,6.38455370e-01,5.25064649e-05,7.02712539,-1.50101530,-1,-0.9327640450093511
9.36753662e+02,8.49815095e+01,-2.95223897e-05,4.29624305,1.91912882,-1.34509848,6.38455370e-01,5.25064649e-05,7.03185237,-1.48705691,-1,-0.9310225810785171
9.56347962e+02,8.49809039e+01,-3.02262119e-05,4.29870852,1.91585324,-1.34509848,6.38455370e-01,5.25064649e-05,7.03670168,-1.47275609,-1,-0.9292207596280333
9.75963473e+02,8.49802967e+01,-3.09312451e-05,4.30117653,1.91257287,-1.34509848,6.38455370e-01,5.25064649e-05,7.04155478,-1.45844467,-1,-0.9274169876901739
9.96255699e+02,8.49796397e+01,-3.16749140e-05,4.30372572,1.90913963,-1.34509848,6.38455370e-01,5.25064649e-05,7.04652877,-1.44379512,-1,-0.9255509874714947
1.01658947e+03,8.49789796e+01,-3.24210783e-05,4.30627988,1.90569657,-1.34509848,6.38455371e-01,5.25064649e-05,7.05150988,-1.42912584,-1,-0.9236811669238342
1.03756607e+03,8.49782692e+01,-3.32058537e-05,4.30891105,1.90210144,-1.34509848,6.38455371e-01,5.25064649e-05,7.05660107,-1.41415145,-1,-0.9217522341302045
1.05865047e+03,8.49775499e+01,-3.39974136e-05,4.31155503,1.89847995,-1.34509848,6.38455371e-01,5.25064649e-05,7.06170995,-1.39912787,-1,-0.9198133884357638
1.08030060e+03,8.49767838e+01,-3.48245783e-05,4.31426626,1.89472006,-1.34509848,6.38455371e-01,5.25064648e-05,7.06691161,-1.38384606,-1,-0.9178225202424747
1.10219301e+03,8.49759979e+01,-3.56199011e-05,4.31699931,1.89091119,-1.34509848,6.38455371e-01,5.25064648e-05,7.07215096,-1.36846002,-1,-0.915809372850591
1.12460167e+03,8.49751701e+01,-3.63473729e-05,4.31977884,1.88699795,-1.34509848,6.38455371e-01,5.25064648e-05,7.07747061,-1.35285184,-1,-0.9137487529629402
1.14717433e+03,8.49743281e+01,-3.70831363e-05,4.32257499,1.88304494,-1.34509848,6.38455371e-01,5.25064648e-05,7.08281334,-1.33717995,-1,-0.9116730522243337
1.17046762e+03,8.49734233e+01,-3.78553357e-05,4.32544420,1.87891716,-1.34509848,6.38455371e-01,5.25064648e-05,7.08825747,-1.32122807,-1,-0.9095310849392386
1.19376092e+03,8.49725186e+01,-3.86275352e-05,4.32831341,1.87478938,-1.34509848,6.38455372e-01,5.25064648e-05,7.09370160,-1.30527620,-1,-0.9073891167345793
1.21766307e+03,8.49715492e+01,-3.96924346e-05,4.33125654,1.87049336,-1.34509848,6.38455372e-01,5.25064648e-05,7.09922812,-1.28909237,-1,-0.9051911608707475
1.24179988e+03,8.49705549e+01,-4.08701395e-05,4.33422816,1.86613250,-1.34509848,6.38455372e-01,5.25064648e-05,7.10478639,-1.27281916,-1,-0.9029716265161519
1.26644502e+03,8.49695043e+01,-4.19944804e-05,4.33727043,1.86161261,-1.34509848,6.38455372e-01,5.25064647e-05,7.11041039,-1.25636405,-1,-0.9007053479605426
1.29128239e+03,8.49684323e+01,-4.30986427e-05,4.34033943,1.85703258,-1.34509848,6.38455372e-01,5.25064647e-05,7.11605925,-1.23984016,-1,-0.8984213926245723
1.31675912e+03,8.49672881e+01,-4.42140375e-05,4.34347764,1.85228552,-1.34509848,6.38455372e-01,5.25064647e-05,7.12178655,-1.22309612,-1,-0.8960786440394132
1.34246042e+03,8.49661178e+01,-4.53369568e-05,4.34663835,1.84748146,-1.34509848,6.38455373e-01,5.25064647e-05,7.12753986,-1.20627932,-1,-0.8937152448036498
1.36863111e+03,8.49648925e+01,-4.64770967e-05,4.34984531,1.84255893,-1.34509848,6.38455373e-01,5.25064647e-05,7.13334688,-1.18931232,-1,-0.8913086821494105
1.39525541e+03,8.49636123e+01,-4.76388385e-05,4.35309385,1.83752454,-1.34509848,6.38455373e-01,5.25064647e-05,7.13920292,-1.17220844,-1,-0.8888604071488176
1.42218046e+03,8.49622950e+01,-4.88154480e-05,4.35637001,1.83241509,-1.34509848,6.38455373e-01,5.25064646e-05,7.14509051,-1.15501641,-1,-0.886384476258439
1.44963101e+03,8.49609113e+01,-5.00197283e-05,4.35969454,1.82717173,-1.34509848,6.38455373e-01,5.25064646e-05,7.15103016,-1.13767854,-1,-0.8838602222755164
1.47754922e+03,8.49594694e+01,-5.11121371e-05,4.36306138,1.82180395,-1.34509848,6.38455373e-01,5.25064646e-05,7.15701009,-1.12022839,-1,-0.8812929639587044
1.50569010e+03,8.49579997e+01,-5.21512822e-05,4.36644836,1.81637693,-1.34509848,6.38455374e-01,5.25064646e-05,7.16300920,-1.10272477,-1,-0.8787052297084638
1.53461332e+03,8.49564279e+01,-5.32632130e-05,4.36989555,1.81075754,-1.34509848,6.38455374e-01,5.25064646e-05,7.16906719,-1.08505750,-1,-0.8760455542817804
1.56359604e+03,8.49548483e+01,-5.43806795e-05,4.37334732,1.80512351,-1.34509848,6.38455374e-01,5.25064646e-05,7.17512966,-1.06737777,-1,-0.8733804074488052
1.59332382e+03,8.49531555e+01,-5.59630741e-05,4.37685377,1.79932417,-1.34509848,6.38455374e-01,5.25064646e-05,7.18125015,-1.04952879,-1,-0.8706467475742875
1.62328530e+03,8.49514252e+01,-5.75716841e-05,4.38038496,1.79345754,-1.34509848,6.38455374e-01,5.25064646e-05,7.18738640,-1.03163532,-1,-0.867891597487158
1.65373637e+03,8.49496135e+01,-5.90789764e-05,4.38397788,1.78742976,-1.34509848,6.38455375e-01,5.25064646e-05,7.19355248,-1.01365984,-1,-0.8650914264621057
1.68464214e+03,8.49477272e+01,-6.05750358e-05,4.38761449,1.78127560,-1.34509848,6.38455375e-01,5.25064647e-05,7.19974513,-9.95607846e-01,-1,-0.8622494428582148
1.71591325e+03,8.49457806e+01,-6.20707067e-05,4.39128315,1.77502539,-1.34509848,6.38455375e-01,5.25064648e-05,7.20595838,-9.77496829e-01,-1,-0.8593738639001282
1.74761931e+03,8.49437621e+01,-6.35752221e-05,4.39498671,1.76866674,-1.34509848,6.38455375e-01,5.25064650e-05,7.21219538,-9.59318192e-01,-1,-0.8564582885022662
1.77987917e+03,8.49416496e+01,-6.50315810e-05,4.39874204,1.76215151,-1.34509848,6.38455376e-01,5.25064655e-05,7.21845493,-9.41073219e-01,-1,-0.8534917876455067
1.81259467e+03,8.49394638e+01,-6.63672160e-05,4.40252791,1.75553417,-1.34509848,6.38455376e-01,5.25064667e-05,7.22473296,-9.22776134e-01,-1,-0.8504833877708848
1.84562210e+03,8.49372281e+01,-6.76345866e-05,4.40633257,1.74885161,-1.34509848,6.38455376e-01,5.25064686e-05,7.23102371,-9.04443018e-01,-1,-0.8474463039338327
1.87951637e+03,8.49348516e+01,-6.90299572e-05,4.41016504,1.74204152,-1.34509848,6.38455376e-01,5.25064746e-05,7.23735116,-8.86001507e-01,-1,-0.8443295086038394
1.91361675e+03,8.49324378e+01,-7.05537916e-05,4.41400304,1.73520499,-1.34509848,6.38455376e-01,5.25064831e-05,7.24368883,-8.67529233e-01,-1,-0.8411937601385383
1.94843372e+03,8.49298941e+01,-7.25242405e-05,4.41786026,1.72827653,-1.34509848,6.38455376e-01,5.25065003e-05,7.25006204,-8.48950007e-01,-1,-0.837992116630638
1.98368870e+03,8.49272579e+01,-7.43143567e-05,4.42176708,1.72121532,-1.34509848,6.38455377e-01,5.25065348e-05,7.25644020,-8.30355038e-01,-1,-0.8347501952963532
2.01933652e+03,8.49245412e+01,-7.60189187e-05,4.42571002,1.71405052,-1.34509848,6.38455377e-01,5.25065932e-05,7.26282423,-8.11741383e-01,-1,-0.8314721498066452
2.05542885e+03,8.49219301e+01,-7.34643612e-05,4.42968517,1.70679509,-1.34509849,6.38455377e-01,5.25066815e-05,7.26921757,-7.93098990e-01,-1,-0.8281532287738991
2.09213882e+03,8.49216751e+01,-1.70250664e-05,4.43368361,1.69957460,-1.34509849,6.38455377e-01,5.25067675e-05,7.27564116,-7.74372147e-01,-1,-0.8247775117851515
2.12975985e+03,8.49213969e+01,-7.31621550e-06,4.43763224,1.69234584,-1.34509849,6.38455378e-01,5.25068999e-05,7.28214034,-7.55420239e-01,-1,-0.8213180169910892
2.16787366e+03,8.49210993e+01,-7.71123259e-06,4.44162167,1.68498281,-1.34509849,6.38455379e-01,5.25071089e-05,7.28863643,-7.36475717e-01,-1,-0.8178132079181617
2.20632052e+03,8.49207871e+01,-8.07366027e-06,4.44565228,1.67750716,-1.34509849,6.38455379e-01,5.25073999e-05,7.29511917,-7.17569118e-01,-1,-0.8142777727634612
2.24544554e+03,8.49204490e+01,-8.44976307e-06,4.44972157,1.66989982,-1.34509849,6.38455379e-01,5.25078758e-05,7.30159767,-6.98672053e-01,-1,-0.8106799764509312
2.28508666e+03,8.49200910e+01,-8.91553995e-06,4.45379221,1.66225637,-1.34509849,6.38455380e-01,5.25085006e-05,7.30809395,-6.79719070e-01,-1,-0.8070347214360952
2.32532751e+03,8.49197093e+01,-9.47121870e-06,4.45786831,1.65456408,-1.34509849,6.38455380e-01,5.25093181e-05,7.31460891,-6.60706995e-01,-1,-0.8033343174045299
2.36620413e+03,8.49192966e+01,-9.99858108e-06,4.46198370,1.64676039,-1.34509849,6.38455380e-01,5.25105119e-05,7.32112664,-6.41683162e-01,-1,-0.7995754502472814
2.40766397e+03,8.49188561e+01,-1.05270141e-05,4.46612411,1.63887230,-1.34509849,6.38455380e-01,5.25121544e-05,7.32764838,-6.22646930e-01,-1,-0.795762952273604
2.44968930e+03,8.49183885e+01,-1.10621573e-05,4.47028434,1.63091177,-1.34509849,6.38455380e-01,5.25143182e-05,7.33417421,-6.03596820e-01,-1,-0.7918984538706164
2.49230190e+03,8.49178922e+01,-1.15701560e-05,4.47446969,1.62286923,-1.34509849,6.38455380e-01,5.25171877e-05,7.34069755,-5.84552167e-01,-1,-0.7879799522277466
