star_age,star_mass,star_mdot,log_Teff,log_R,log_surf_z,surface_h1,surface_he3,log_center_T,log_center_Rho,phase,x
3.87024407e+02,1.34995403e+02,-1.46160889e-05,4.51043113,1.68898691,-1.84509849,7.15400001e-01,4.48629100e-05,7.33596908,-7.08672851e-01,-1,-1.0
3.93800157e+02,1.34995297e+02,-1.47328971e-05,4.51111400,1.68767212,-1.84509849,7.15400001e-01,4.48629929e-05,7.33711725,-7.05335340e-01,-1,-0.9992631138401011
4.00575906e+02,1.34995192e+02,-1.48497052e-05,4.51179687,1.68635733,-1.84509849,7.15400001e-01,4.48630758e-05,7.33826542,-7.01997829e-01,-1,-0.9985262277889557
4.07351655e+02,1.34995086e+02,-1.49665134e-05,4.51247974,1.68504255,-1.84509849,7.15400001e-01,4.48631587e-05,7.33941359,-6.98660318e-01,-1,-0.9977893417378103
4.14127405e+02,1.34994980e+02,-1.50833215e-05,4.51316262,1.68372776,-1.84509849,7.15400001e-01,4.48632416e-05,7.34056177,-6.95322807e-01,-1,-0.9970524555779114
4.20903154e+02,1.34994875e+02,-1.52001297e-05,4.51384549,1.68241297,-1.84509849,7.15400001e-01,4.48633245e-05,7.34170994,-6.91985295e-01,-1,-0.9963155695267661
4.27678903e+02,1.34994769e+02,-1.53169378e-05,4.51452836,1.68109818,-1.84509849,7.15400001e-01,4.48634075e-05,7.34285811,-6.88647784e-01,-1,-0.9955786834756207
4.34454653e+02,1.34994663e+02,-1.54337460e-05,4.51521123,1.67978339,-1.84509849,7.15400001e-01,4.48634904e-05,7.34400629,-6.85310273e-01,-1,-0.9948417973157219
4.41230402e+02,1.34994558e+02,-1.55505542e-05,4.51589411,1.67846860,-1.84509849,7.15400002e-01,4.48635733e-05,7.34515446,-6.81972762e-01,-1,-0.9941049112645765
4.48605465e+02,1.34994439e+02,-1.56679422e-05,4.51663711,1.67702430,-1.84509849,7.15400002e-01,4.48637083e-05,7.34638773,-6.78387765e-01,-1,-0.9933028477508574
4.56252839e+02,1.34994313e+02,-1.57855936e-05,4.51740743,1.67552115,-1.84509849,7.15400002e-01,4.48638669e-05,7.34765967,-6.74690318e-01,-1,-0.9924711694775783
4.63900213e+02,1.34994188e+02,-1.59032451e-05,4.51817775,1.67401800,-1.84509849,7.15400002e-01,4.48640256e-05,7.34893162,-6.70992871e-01,-1,-0.9916394912042993
4.71547587e+02,1.34994062e+02,-1.60208965e-05,4.51894807,1.67251485,-1.84509849,7.15400002e-01,4.48641842e-05,7.35020356,-6.67295424e-01,-1,-0.9908078129310203
4.79194961e+02,1.34993937e+02,-1.61385480e-05,4.51971839,1.67101170,-1.84509849,7.15400002e-01,4.48643429e-05,7.35147550,-6.63597977e-01,-1,-0.9899761346577413
4.86842335e+02,1.34993812e+02,-1.62561995e-05,4.52048871,1.66950855,-1.84509849,7.15400002e-01,4.48645015e-05,7.35274744,-6.59900530e-01,-1,-0.9891444563844622
4.94489710e+02,1.34993686e+02,-1.63738509e-05,4.52125903,1.66800540,-1.84509849,7.15400002e-01,4.48646602e-05,7.35401938,-6.56203082e-01,-1,-0.9883127780024298
5.02796107e+02,1.34993545e+02,-1.64957710e-05,4.52209137,1.66636748,-1.84509849,7.15400002e-01,4.48649097e-05,7.35537950,-6.52248489e-01,-1,-0.9874094287070861
5.11266970e+02,1.34993400e+02,-1.66187563e-05,4.52293919,1.66469593,-1.84509849,7.15400002e-01,4.48651818e-05,7.35676163,-6.48229723e-01,-1,-0.9864881931675371
5.19737834e+02,1.34993255e+02,-1.67417416e-05,4.52378701,1.66302438,-1.84509849,7.15400002e-01,4.48654540e-05,7.35814376,-6.44210956e-01,-1,-0.9855669575192346
5.28208698e+02,1.34993109e+02,-1.68647269e-05,4.52463484,1.66135283,-1.84509849,7.15400002e-01,4.48657261e-05,7.35952589,-6.40192190e-01,-1,-0.9846457218709321
5.36679562e+02,1.34992964e+02,-1.69877122e-05,4.52548266,1.65968128,-1.84509849,7.15400002e-01,4.48659983e-05,7.36090802,-6.36173423e-01,-1,-0.9837244862226298
5.45150426e+02,1.34992819e+02,-1.71106975e-05,4.52633048,1.65800973,-1.84509849,7.15400002e-01,4.48662704e-05,7.36229015,-6.32154656e-01,-1,-0.9828032505743273
5.54233307e+02,1.34992658e+02,-1.72383729e-05,4.52723302,1.65621912,-1.84509849,7.15400002e-01,4.48666627e-05,7.36375066,-6.27907979e-01,-1,-0.98181545596843
5.63504283e+02,1.34992493e+02,-1.73674898e-05,4.52815238,1.65439192,-1.84509849,7.15400002e-01,4.48670918e-05,7.36523525,-6.23591256e-01,-1,-0.9808072053831584
5.72775259e+02,1.34992328e+02,-1.74966066e-05,4.52907174,1.65256472,-1.84509849,7.15400002e-01,4.48675209e-05,7.36671983,-6.19274533e-01,-1,-0.9797989547978867
5.82046234e+02,1.34992162e+02,-1.76257234e-05,4.52999109,1.65073752,-1.84509849,7.15400002e-01,4.48679501e-05,7.36820442,-6.14957810e-01,-1,-0.9787907043213685
5.91317210e+02,1.34991997e+02,-1.77548402e-05,4.53091045,1.64891032,-1.84509849,7.15400002e-01,4.48683792e-05,7.36968901,-6.10641087e-01,-1,-0.9777824537360968
6.00842574e+02,1.34991825e+02,-1.78867488e-05,4.53185104,1.64703687,-1.84509849,7.15400002e-01,4.48688752e-05,7.37120493,-6.06233117e-01,-1,-0.9767465375792731
6.10902336e+02,1.34991638e+02,-1.80245219e-05,4.53283625,1.64506628,-1.84509849,7.15400002e-01,4.48695116e-05,7.37278668,-6.01633460e-01,-1,-0.9756525037985586
6.20962099e+02,1.34991452e+02,-1.81622950e-05,4.53382146,1.64309569,-1.84509849,7.15400002e-01,4.48701480e-05,7.37436842,-5.97033803e-01,-1,-0.9745584699090906
6.31021862e+02,1.34991265e+02,-1.83000682e-05,4.53480667,1.64112509,-1.84509849,7.15400002e-01,4.48707844e-05,7.37595017,-5.92434146e-01,-1,-0.9734644360196226
6.41081624e+02,1.34991079e+02,-1.84378413e-05,4.53579187,1.63915450,-1.84509849,7.15400002e-01,4.48714208e-05,7.37753191,-5.87834490e-01,-1,-0.9723704022389081
6.51414283e+02,1.34990885e+02,-1.85684888e-05,4.53680313,1.63712909,-1.84509849,7.15400002e-01,4.48721516e-05,7.37914529,-5.83142786e-01,-1,-0.9712466899691146
6.62326358e+02,1.34990676e+02,-1.86840072e-05,4.53786969,1.63498727,-1.84509849,7.15400001e-01,4.48730828e-05,7.38082583,-5.78255647e-01,-1,-0.9700599642128103
6.73238434e+02,1.34990467e+02,-1.87995255e-05,4.53893625,1.63284546,-1.84509849,7.15400001e-01,4.48740141e-05,7.38250636,-5.73368508e-01,-1,-0.9688732383477526
6.84150509e+02,1.34990258e+02,-1.89150438e-05,4.54000282,1.63070365,-1.84509849,7.15400001e-01,4.48749453e-05,7.38418690,-5.68481369e-01,-1,-0.9676865125914484
6.95062585e+02,1.34990048e+02,-1.90305622e-05,4.54106938,1.62856183,-1.84509849,7.15400001e-01,4.48758765e-05,7.38586744,-5.63594230e-01,-1,-0.9664997867263908
7.05974660e+02,1.34989839e+02,-1.91460805e-05,4.54213594,1.62642002,-1.84509849,7.15400001e-01,4.48768077e-05,7.38754798,-5.58707091e-01,-1,-0.9653130609700866
7.17690055e+02,1.34989607e+02,-1.92722164e-05,4.54326227,1.62414753,-1.84509849,7.15400000e-01,4.48780864e-05,7.38931485,-5.53569028e-01,-1,-0.9640389713957593
7.29623830e+02,1.34989369e+02,-1.94012387e-05,4.54440484,1.62183951,-1.84509849,7.15400000e-01,4.48794596e-05,7.39110520,-5.48362753e-01,-1,-0.9627411322439536
7.41557605e+02,1.34989131e+02,-1.95302610e-05,4.54554742,1.61953150,-1.84509849,7.15400000e-01,4.48808328e-05,7.39289554,-5.43156478e-01,-1,-0.961443293092148
7.53491380e+02,1.34988893e+02,-1.96592833e-05,4.54669000,1.61722348,-1.84509849,7.15399999e-01,4.48822060e-05,7.39468588,-5.37950203e-01,-1,-0.9601454539403425
7.65425155e+02,1.34988655e+02,-1.97883055e-05,4.54783257,1.61491546,-1.84509849,7.15399999e-01,4.48835792e-05,7.39647623,-5.32743928e-01,-1,-0.9588476147885369
7.77358930e+02,1.34988417e+02,-1.99173278e-05,4.54897515,1.61260745,-1.84509849,7.15399999e-01,4.48849524e-05,7.39826657,-5.27537653e-01,-1,-0.9575497756367313
7.90030145e+02,1.34988156e+02,-2.00865797e-05,4.55016038,1.61019856,-1.84509849,7.15399998e-01,4.48866666e-05,7.40013194,-5.22112914e-01,-1,-0.9561717373439071
8.02996625e+02,1.34987886e+02,-2.02719392e-05,4.55136270,1.60774927,-1.84509849,7.15399998e-01,4.48885172e-05,7.40202736,-5.16600706e-01,-1,-0.9547615879649299
8.15963104e+02,1.34987615e+02,-2.04572986e-05,4.55256502,1.60529999,-1.84509849,7.15399997e-01,4.48903679e-05,7.40392277,-5.11088497e-01,-1,-0.9533514386947061
8.28929584e+02,1.34987345e+02,-2.06426581e-05,4.55376733,1.60285071,-1.84509849,7.15399997e-01,4.48922185e-05,7.40581818,-5.05576289e-01,-1,-0.9519412893157289
8.41896063e+02,1.34987075e+02,-2.08280175e-05,4.55496965,1.60040143,-1.84509849,7.15399996e-01,4.48940692e-05,7.40771360,-5.00064080e-01,-1,-0.950531140045505
8.55746887e+02,1.34986778e+02,-2.09920172e-05,4.55624349,1.59780360,-1.84509849,7.15399996e-01,4.48964059e-05,7.40970010,-4.94288527e-01,-1,-0.9490248152093179
8.69603012e+02,1.34986480e+02,-2.11558889e-05,4.55751776,1.59520488,-1.84509849,7.15399995e-01,4.48987455e-05,7.41168716,-4.88511394e-01,-1,-0.947517913871115
8.83459138e+02,1.34986182e+02,-2.13197605e-05,4.55879204,1.59260616,-1.84509849,7.15399994e-01,4.49010852e-05,7.41367421,-4.82734262e-01,-1,-0.9460110124241586
8.97315263e+02,1.34985884e+02,-2.14836322e-05,4.56006631,1.59000743,-1.84509849,7.15399994e-01,4.49034248e-05,7.41566127,-4.76957130e-01,-1,-0.9445041110859557
9.11914288e+02,1.34985562e+02,-2.16426708e-05,4.56139362,1.58729533,-1.84509849,7.15399993e-01,4.49061936e-05,7.41771943,-4.70976389e-01,-1,-0.9429164168129206
9.26613664e+02,1.34985237e+02,-2.18010565e-05,4.56272809,1.58456792,-1.84509849,7.15399992e-01,4.49090202e-05,7.41978720,-4.64968144e-01,-1,-0.9413178090228532
9.41313040e+02,1.34984912e+02,-2.19594423e-05,4.56406256,1.58184050,-1.84509849,7.15399991e-01,4.49118469e-05,7.42185496,-4.58959900e-01,-1,-0.9397192012327859
9.56096596e+02,1.34984585e+02,-2.21174928e-05,4.56540245,1.57910135,-1.84509849,7.15399990e-01,4.49147244e-05,7.42393032,-4.52929973e-01,-1,-0.9381114385776569
9.71621904e+02,1.34984233e+02,-2.22725902e-05,4.56679009,1.57625877,-1.84509849,7.15399990e-01,4.49180492e-05,7.42607255,-4.46708997e-01,-1,-0.9364230078366516
9.87147212e+02,1.34983881e+02,-2.24276876e-05,4.56817773,1.57341619,-1.84509849,7.15399989e-01,4.49213740e-05,7.42821479,-4.40488020e-01,-1,-0.9347345770956463
1.00267252e+03,1.34983530e+02,-2.25827850e-05,4.56956536,1.57057361,-1.84509849,7.15399988e-01,4.49246988e-05,7.43035702,-4.34267044e-01,-1,-0.9330461463546409
1.01868761e+03,1.34983162e+02,-2.27224520e-05,4.57098781,1.56765946,-1.84509849,7.15399987e-01,4.49283562e-05,7.43254088,-4.27929491e-01,-1,-0.9313044501334795
1.03510231e+03,1.34982782e+02,-2.28495291e-05,4.57243866,1.56468692,-1.84509849,7.15399985e-01,4.49322848e-05,7.43475869,-4.21496821e-01,-1,-0.9295192949478703
1.05151702e+03,1.34982402e+02,-2.29766061e-05,4.57388951,1.56171438,-1.84509849,7.15399984e-01,4.49362135e-05,7.43697651,-4.15064152e-01,-1,-0.9277341386747266
1.06793172e+03,1.34982021e+02,-2.31036832e-05,4.57534036,1.55874183,-1.84509849,7.15399983e-01,4.49401422e-05,7.43919433,-4.08631483e-01,-1,-0.9259489834891175
1.08490637e+03,1.34981623e+02,-2.32312914e-05,4.57681984,1.55570567,-1.84509849,7.15399982e-01,4.49445531e-05,7.44145426,-4.02083713e-01,-1,-0.9241029318115722
1.10239766e+03,1.34981208e+02,-2.33593896e-05,4.57832575,1.55261081,-1.84509849,7.15399980e-01,4.49494089e-05,7.44375305,-3.95429743e-01,-1,-0.9222006937538255
1.11988895e+03,1.34980792e+02,-2.34874878e-05,4.57983166,1.54951596,-1.84509849,7.15399979e-01,4.49542647e-05,7.44605184,-3.88775773e-01,-1,-0.9202984556960788
1.13738025e+03,1.34980377e+02,-2.36155861e-05,4.58133757,1.54642110,-1.84509850,7.15399977e-01,4.49591205e-05,7.44835063,-3.82121803e-01,-1,-0.9183962165507977
1.15487154e+03,1.34979962e+02,-2.37436843e-05,4.58284348,1.54332624,-1.84509850,7.15399976e-01,4.49639763e-05,7.45064942,-3.75467833e-01,-1,-0.916493978493051
1.17345540e+03,1.34979509e+02,-2.39161450e-05,4.58437636,1.54015267,-1.84509850,7.15399974e-01,4.49698611e-05,7.45302554,-3.68604683e-01,-1,-0.9144729196831041
1.19206029e+03,1.34979055e+02,-2.40894599e-05,4.58590975,1.53697758,-1.84509850,7.15399973e-01,4.49757656e-05,7.45540316,-3.61737505e-01,-1,-0.9124495737881936
1.21066518e+03,1.34978602e+02,-2.42627747e-05,4.58744314,1.53380250,-1.84509850,7.15399971e-01,4.49816701e-05,7.45778077,-3.54870328e-01,-1,-0.9104262278932829
1.22960609e+03,1.34978137e+02,-2.44236102e-05,4.58899577,1.53058822,-1.84509850,7.15399969e-01,4.49879342e-05,7.46018278,-3.47940655e-01,-1,-0.9083663386655384
1.24915711e+03,1.34977652e+02,-2.45617861e-05,4.59058333,1.52730278,-1.84509850,7.15399967e-01,4.49948510e-05,7.46262910,-3.40897505e-01,-1,-0.9062400978730202
1.26870814e+03,1.34977166e+02,-2.46999619e-05,4.59217089,1.52401735,-1.84509850,7.15399965e-01,4.50017678e-05,7.46507542,-3.33854355e-01,-1,-0.9041138559929675
1.28836706e+03,1.34976678e+02,-2.48364670e-05,4.59376356,1.52072087,-1.84509850,7.15399963e-01,4.50088131e-05,7.46752867,-3.26794965e-01,-1,-0.9019758807036551
1.30882897e+03,1.34976162e+02,-2.49605390e-05,4.59539430,1.51734225,-1.84509850,7.15399960e-01,4.50168144e-05,7.47003356,-3.19614709e-01,-1,-0.8997505774849566
1.32929088e+03,1.34975646e+02,-2.50846109e-05,4.59702504,1.51396364,-1.84509850,7.15399958e-01,4.50248157e-05,7.47253844,-3.12434453e-01,-1,-0.8975252742662582
1.34982994e+03,1.34975128e+02,-2.52063044e-05,4.59865993,1.51057662,-1.84509850,7.15399955e-01,4.50329529e-05,7.47504762,-3.05246083e-01,-1,-0.8952915807192218
1.37126692e+03,1.34974581e+02,-2.53003189e-05,4.60034315,1.50709179,-1.84509850,7.15399952e-01,4.50426716e-05,7.47760671,-2.97963292e-01,-1,-0.8929602352781963
1.39270390e+03,1.34974034e+02,-2.53943335e-05,4.60202637,1.50360697,-1.84509850,7.15399950e-01,4.50523903e-05,7.48016581,-2.90680500e-01,-1,-0.8906288898371708
1.41414088e+03,1.34973487e+02,-2.54883480e-05,4.60370959,1.50012214,-1.84509850,7.15399947e-01,4.50621089e-05,7.48272490,-2.83397708e-01,-1,-0.8882975443961454
1.43629776e+03,1.34972916e+02,-2.55790182e-05,4.60541409,1.49658708,-1.84509850,7.15399943e-01,4.50737190e-05,7.48531375,-2.76075366e-01,-1,-0.8858879073495395
1.45893895e+03,1.34972330e+02,-2.56674387e-05,4.60713290,1.49301821,-1.84509850,7.15399939e-01,4.50866014e-05,7.48792262,-2.68726419e-01,-1,-0.8834255999216326
1.48158013e+03,1.34971745e+02,-2.57558591e-05,4.60885171,1.48944934,-1.84509850,7.15399935e-01,4.50994838e-05,7.49053149,-2.61377471e-01,-1,-0.8809632935812601
1.50422132e+03,1.34971159e+02,-2.58442796e-05,4.61057053,1.48588048,-1.84509850,7.15399931e-01,4.51123662e-05,7.49314036,-2.54028524e-01,-1,-0.8785009861533533
1.52768384e+03,1.34970546e+02,-2.59443280e-05,4.61228891,1.48229364,-1.84509850,7.15399927e-01,4.51273398e-05,7.49577706,-2.46647315e-01,-1,-0.8759493562578657
1.55160346e+03,1.34969919e+02,-2.60508476e-05,4.61400705,1.47869679,-1.84509850,7.15399922e-01,4.51434772e-05,7.49842925,-2.39248151e-01,-1,-0.8733480151623354
1.57552308e+03,1.34969292e+02,-2.61573672e-05,4.61572519,1.47509995,-1.84509850,7.15399917e-01,4.51596146e-05,7.50108144,-2.31848988e-01,-1,-0.8707466740668051
1.59993489e+03,1.34968650e+02,-2.62449262e-05,4.61745963,1.47147005,-1.84509850,7.15399911e-01,4.51772386e-05,7.50374618,-2.24454339e-01,-1,-0.8680918056128213
1.62492794e+03,1.34967990e+02,-2.63100948e-05,4.61921330,1.46780111,-1.84509850,7.15399905e-01,4.51966181e-05,7.50642576,-2.17065021e-01,-1,-0.865373725306042
1.64992099e+03,1.34967330e+02,-2.63752634e-05,4.62096697,1.46413217,-1.84509850,7.15399899e-01,4.52159976e-05,7.50910534,-2.09675703e-01,-1,-0.8626556449992626
1.67553616e+03,1.34966652e+02,-2.64299926e-05,4.62273194,1.46043566,-1.84509850,7.15399892e-01,4.52376949e-05,7.51178897,-2.02331782e-01,-1,-0.8598699069988264
1.70159218e+03,1.34965961e+02,-2.64773239e-05,4.62450493,1.45671961,-1.84509850,7.15399885e-01,4.52610346e-05,7.51447548,-1.95020031e-01,-1,-0.8570362250418404
1.72764821e+03,1.34965270e+02,-2.65246552e-05,4.62627792,1.45300357,-1.84509850,7.15399878e-01,4.52843743e-05,7.51716199,-1.87708280e-01,-1,-0.85420254199732
1.75469928e+03,1.34964550e+02,-2.65538830e-05,4.62806920,1.44924745,-1.84509850,7.15399869e-01,4.53137286e-05,7.51982840,-1.80559776e-01,-1,-0.8512606449241613
1.78191792e+03,1.34963826e+02,-2.65800621e-05,4.62986355,1.44548458,-1.84509851,7.15399859e-01,4.53440957e-05,7.52249142,-1.73438764e-01,-1,-0.8483005240361019
1.80913656e+03,1.34963101e+02,-2.66062411e-05,4.63165791,1.44172172,-1.84509851,7.15399849e-01,4.53744629e-05,7.52515445,-1.66317752e-01,-1,-0.8453404031480424
1.83742014e+03,1.34962347e+02,-2.66240988e-05,4.63344446,1.43796057,-1.84509851,7.15399837e-01,4.54134529e-05,7.52776931,-1.59428990e-01,-1,-0.8422644663654881
1.86611684e+03,1.34961582e+02,-2.66387283e-05,4.63522798,1.43420009,-1.84509851,7.15399823e-01,4.54557879e-05,7.53036549,-1.52630325e-01,-1,-0.8391436013594343
1.89481354e+03,1.34960817e+02,-2.66533578e-05,4.63701151,1.43043961,-1.84509851,7.15399810e-01,4.54981230e-05,7.53296167,-1.45831661e-01,-1,-0.8360227363533804
1.92375444e+03,1.34960045e+02,-2.66647072e-05,4.63878739,1.42668896,-1.84509851,7.15399796e-01,4.55420990e-05,7.53554557,-1.39079843e-01,-1,-0.8328753137558795
1.95405941e+03,1.34959238e+02,-2.66577333e-05,4.64052062,1.42299324,-1.84509851,7.15399779e-01,4.55952410e-05,7.53806093,-1.32589713e-01,-1,-0.829579543845663
1.98436438e+03,1.34958430e+02,-2.66507595e-05,4.64225385,1.41929753,-1.84509851,7.15399762e-01,4.56483829e-05,7.54057629,-1.26099582e-01,-1,-0.8262837739354465
2.01495023e+03,1.34957616e+02,-2.66374921e-05,4.64398496,1.41560447,-1.84509851,7.15399744e-01,4.57039663e-05,7.54307106,-1.19677964e-01,-1,-0.8229574573573936
2.04665640e+03,1.34956775e+02,-2.65991216e-05,4.64570761,1.41192201,-1.84509851,7.15399723e-01,4.57692879e-05,7.54548366,-1.13529624e-01,-1,-0.8195093021190214
2.07836257e+03,1.34955933e+02,-2.65607512e-05,4.64743027,1.40823956,-1.84509851,7.15399702e-01,4.58346096e-05,7.54789626,-1.07381283e-01,-1,-0.8160611468806493
2.11079234e+03,1.34955075e+02,-2.65185014e-05,4.64914343,1.40457130,-1.84509851,7.15399678e-01,4.59100918e-05,7.55023864,-1.01449895e-01,-1,-0.8125342976489476
2.14404189e+03,1.34954197e+02,-2.64718569e-05,4.65084584,1.40091911,-1.84509851,7.15399649e-01,4.59970851e-05,7.55250146,-9.57642932e-02,-1,-0.8089182945175061
2.17729143e+03,1.34953319e+02,-2.64252123e-05,4.65254826,1.39726692,-1.84509851,7.15399621e-01,4.60840784e-05,7.55476429,-9.00786912e-02,-1,-0.805302292473599
2.21122016e+03,1.34952426e+02,-2.63735172e-05,4.65422551,1.39365600,-1.84509852,7.15399590e-01,4.61811400e-05,7.55696170,-8.45767034e-02,-1,-0.8016124261768872
2.24644942e+03,1.34951504e+02,-2.63121509e-05,4.65585459,1.39012409,-1.84509852,7.15399552e-01,4.62974811e-05,7.55903385,-7.94263112e-02,-1,-0.7977811227614015
2.28167868e+03,1.34950582e+02,-2.62507847e-05,4.65748367,1.38659218,-1.84509852,7.15399514e-01,4.64138223e-05,7.56110600,-7.42759190e-02,-1,-0.7939498193459156
2.31690794e+03,1.34949660e+02,-2.61894184e-05,4.65911276,1.38306027,-1.84509852,7.15399476e-01,4.65301634e-05,7.56317816,-6.91255267e-02,-1,-0.7901185159304298
2.35382939e+03,1.34948703e+02,-2.60929685e-05,4.66066830,1.37964414,-1.84509852,7.15399431e-01,4.66686023e-05,7.56509503,-6.43689851e-02,-1,-0.7861031810216157
2.39116618e+03,1.34947737e+02,-2.59879074e-05,4.66220580,1.37625642,-1.84509852,7.15399384e-01,4.68124649e-05,7.56697378,-5.97091133e-02,-1,-0.7820426764566524
2.42850298e+03,1.34946772e+02,-2.58828462e-05,4.66374329,1.37286871,-1.84509852,7.15399337e-01,4.69563276e-05,7.56885254,-5.50492416e-02,-1,-0.7779821708041547
2.46749191e+03,1.34945774e+02,-2.57800125e-05,4.66522902,1.36957579,-1.84509852,7.15399280e-01,4.71297509e-05,7.57056450,-5.08037096e-02,-1,-0.7737419903213646
2.50697183e+03,1.34944767e+02,-2.56778407e-05,4.66669936,1.36631104,-1.84509852,7.15399221e-01,4.73119592e-05,7.57222689,-4.66813149e-02,-1,-0.769448412984256
2.54645175e+03,1.34943760e+02,-2.55756689e-05,4.66816970,1.36304629,-1.84509853,7.15399161e-01,4.74941675e-05,7.57388928,-4.25589201e-02,-1,-0.7651548356471474
2.58680631e+03,1.34942737e+02,-2.54695703e-05,4.66960302,1.35984481,-1.84509853,7.15399096e-01,4.76926992e-05,7.57547497,-3.86090637e-02,-1,-0.7607661381962663
2.62893688e+03,1.34941681e+02,-2.53554979e-05,4.67096117,1.35677182,-1.84509853,7.15399021e-01,4.79243763e-05,7.57690491,-3.50095530e-02,-1,-0.7561842935382359
2.67106745e+03,1.34940625e+02,-2.52414256e-05,4.67231932,1.35369882,-1.84509853,7.15398945e-01,4.81560534e-05,7.57833485,-3.14100424e-02,-1,-0.7516024488802054
2.71319801e+03,1.34939569e+02,-2.51273533e-05,4.67367747,1.35062582,-1.84509853,7.15398869e-01,4.83877305e-05,7.57976480,-2.78105317e-02,-1,-0.7470206053097095
