star_age,star_mass,star_mdot,log_Teff,log_R,log_surf_z,surface_h1,surface_he3,log_center_T,log_center_Rho,phase,x
1.39600550e+03,5.99999960e-01,-2.67784745e-11,3.68333127,9.69738201e-01,-3.84509847,7.50629130e-01,4.13624920e-05,5.71207256,-2.10863626,-1,-1.0
1.47334998e+03,5.99999958e-01,-2.63389920e-11,3.68351546,9.67076646e-01,-3.84509847,7.50629130e-01,4.13624920e-05,5.71457291,-2.10117298,-1,-0.9999985458421288
1.55496732e+03,5.99999956e-01,-2.58886526e-11,3.68370701,9.64315849e-01,-3.84509847,7.50629130e-01,4.13624920e-05,5.71716683,-2.09342936,-1,-0.9999970113499789
1.64104546e+03,5.99999954e-01,-2.54283570e-11,3.68390872,9.61454653e-01,-3.84509847,7.50629130e-01,4.13624921e-05,5.71985572,-2.08540275,-1,-0.9999953929900801
1.73177087e+03,5.99999952e-01,-2.49584750e-11,3.68411223,9.58492699e-01,-3.84509847,7.50629130e-01,4.13624921e-05,5.72263966,-2.07709023,-1,-0.9999936872565994
1.82732334e+03,5.99999950e-01,-2.44842542e-11,3.68432095,9.55429954e-01,-3.84509847,7.50629130e-01,4.13624922e-05,5.72551894,-2.06849162,-1,-0.9999918907692953
1.92803910e+03,5.99999947e-01,-2.40033362e-11,3.68453590,9.52263188e-01,-3.84509847,7.50629130e-01,4.13624922e-05,5.72849688,-2.05959854,-1,-0.9999899972066886
2.03481584e+03,5.99999945e-01,-2.35140961e-11,3.68475779,9.48979647e-01,-3.84509847,7.50629130e-01,4.13624923e-05,5.73158553,-2.05037294,-1,-0.9999879896912597
2.14707546e+03,5.99999942e-01,-2.30190083e-11,3.68498557,9.45594859e-01,-3.84509847,7.50629130e-01,4.13624924e-05,5.73477037,-2.04086052,-1,-0.9999858790918988
2.26541806e+03,5.99999939e-01,-2.25185442e-11,3.68521961,9.42102098e-01,-3.84509847,7.50629130e-01,4.13624924e-05,5.73805772,-2.03103831,-1,-0.9999836541260927
2.39059201e+03,5.99999937e-01,-2.20131681e-11,3.68546036,9.38493592e-01,-3.84509847,7.50629130e-01,4.13624926e-05,5.74145524,-2.02088895,-1,-0.9999813007236951
2.52214515e+03,5.99999934e-01,-2.15042423e-11,3.68571082,9.34781815e-01,-3.84509847,7.50629130e-01,4.13624927e-05,5.74495131,-2.01044356,-1,-0.9999788273857915
2.66143319e+03,5.99999931e-01,-2.09925508e-11,3.68596409,9.30950670e-01,-3.84509847,7.50629130e-01,4.13624929e-05,5.74856116,-1.99965909,-1,-0.9999762086236026
2.80796707e+03,5.99999928e-01,-2.04778391e-11,3.68622330,9.27013263e-01,-3.84509847,7.50629130e-01,4.13624931e-05,5.75227237,-1.98856984,-1,-0.9999734536319728
2.96258441e+03,5.99999925e-01,-1.99613371e-11,3.68649978,9.22962491e-01,-3.84509847,7.50629130e-01,4.13624933e-05,5.75609198,-1.97715359,-1,-0.9999705466627619
3.12586622e+03,5.99999921e-01,-1.94433987e-11,3.68677377,9.18796628e-01,-3.84509847,7.50629130e-01,4.13624936e-05,5.76002182,-1.96540981,-1,-0.9999674767923684
3.29782439e+03,5.99999918e-01,-1.89244929e-11,3.68705123,9.14521624e-01,-3.84509847,7.50629130e-01,4.13624940e-05,5.76405619,-1.95335094,-1,-0.9999642437972479
3.47901993e+03,5.99999915e-01,-1.84104865e-11,3.68733373,9.10136909e-01,-3.84509847,7.50629130e-01,4.13624945e-05,5.76819556,-1.94097928,-1,-0.9999608371298202
3.67035042e+03,5.99999911e-01,-1.78938880e-11,3.68761847,9.05638335e-01,-3.84509847,7.50629130e-01,4.13624951e-05,5.77244409,-1.92827809,-1,-0.9999572399146337
3.87219420e+03,5.99999908e-01,-1.73798226e-11,3.68790782,9.01028353e-01,-3.84509847,7.50629130e-01,4.13624958e-05,5.77679928,-1.91525938,-1,-0.999953445038497
4.08495863e+03,5.99999904e-01,-1.68691268e-11,3.68820390,8.96309496e-01,-3.84509847,7.50629130e-01,4.13624967e-05,5.78125889,-1.90192561,-1,-0.9999494448426122
4.30925726e+03,5.99999901e-01,-1.63612151e-11,3.68850441,8.91482248e-01,-3.84509847,7.50629130e-01,4.13624979e-05,5.78582172,-1.88827905,-1,-0.9999452277915915
4.54572983e+03,5.99999897e-01,-1.58573071e-11,3.68880933,8.86547605e-01,-3.84509847,7.50629130e-01,4.13624994e-05,5.79048797,-1.87432240,-1,-0.9999407818576476
4.79504692e+03,5.99999893e-01,-1.53581756e-11,3.68912841,8.81506178e-01,-3.84509847,7.50629130e-01,4.13625013e-05,5.79525695,-1.86005589,-1,-0.9999360944331686
5.05781239e+03,5.99999889e-01,-1.48617804e-11,3.68944794,8.76359592e-01,-3.84509847,7.50629130e-01,4.13625038e-05,5.80012774,-1.84548442,-1,-0.999931154164949
5.33477360e+03,5.99999885e-01,-1.43783749e-11,3.68976423,8.71114513e-01,-3.84509847,7.50629130e-01,4.13625069e-05,5.80504337,-1.83071186,-1,-0.999925947001832
5.62710950e+03,5.99999881e-01,-1.38983979e-11,3.69008394,8.65763085e-01,-3.84509847,7.50629130e-01,4.13625109e-05,5.81011009,-1.81554942,-1,-0.999920450778313
5.93529927e+03,5.99999877e-01,-1.34251987e-11,3.69040648,8.60314573e-01,-3.84509847,7.50629130e-01,4.13625161e-05,5.81525799,-1.80012694,-1,-0.9999146564853021
6.26000390e+03,5.99999872e-01,-1.29593150e-11,3.69073140,8.54770395e-01,-3.84509847,7.50629130e-01,4.13625229e-05,5.82050260,-1.78442062,-1,-0.9999085516954896
6.60198622e+03,5.99999868e-01,-1.25013517e-11,3.69105758,8.49129442e-01,-3.84509847,7.50629130e-01,4.13625315e-05,5.82585418,-1.76840222,-1,-0.9999021220668664
6.96305610e+03,5.99999864e-01,-1.20512034e-11,3.69138682,8.43394218e-01,-3.84509847,7.50629130e-01,4.13625429e-05,5.83129498,-1.75211204,-1,-0.9998953335719656
7.34339585e+03,5.99999859e-01,-1.16119561e-11,3.69171695,8.37568766e-01,-3.84509847,7.50629130e-01,4.13625577e-05,5.83682524,-1.73555753,-1,-0.9998881827831669
7.74408769e+03,5.99999855e-01,-1.11810760e-11,3.69205001,8.31655138e-01,-3.84509847,7.50629130e-01,4.13625769e-05,5.84244176,-1.71874602,-1,-0.999880649353592
8.16692041e+03,5.99999850e-01,-1.07599676e-11,3.69239143,8.25649674e-01,-3.84509847,7.50629130e-01,4.13626024e-05,5.84814968,-1.70166057,-1,-0.9998726996521003
8.61202055e+03,5.99999845e-01,-1.03492944e-11,3.69272734,8.19564140e-01,-3.84509847,7.50629130e-01,4.13626356e-05,5.85393590,-1.68433720,-1,-0.9998643312996066
9.08173253e+03,5.99999841e-01,-9.94852823e-12,3.69306420,8.13394984e-01,-3.84509847,7.50629130e-01,4.13626796e-05,5.85980499,-1.66676470,-1,-0.9998555002185399
9.57638721e+03,5.99999836e-01,-9.55789637e-12,3.69340166,8.07147980e-01,-3.84509847,7.50629130e-01,4.13627375e-05,5.86575113,-1.64896047,-1,-0.9998462001883827
1.00977772e+04,5.99999831e-01,-9.17592375e-12,3.69373976,8.00823647e-01,-3.84509847,7.50629130e-01,4.13628140e-05,5.87177343,-1.63092314,-1,-0.9998363975061749
1.06475952e+04,5.99999826e-01,-8.80686841e-12,3.69407567,7.94423215e-01,-3.84509847,7.50629130e-01,4.13629158e-05,5.87787137,-1.61265901,-1,-0.9998260603473698
1.12266478e+04,5.99999821e-01,-8.44900501e-12,3.69441274,7.87952058e-01,-3.84509847,7.50629130e-01,4.13630506e-05,5.88403956,-1.59417949,-1,-0.9998151735472235
1.18368461e+04,5.99999816e-01,-8.10085470e-12,3.69474677,7.81412828e-01,-3.84509847,7.50629130e-01,4.13632297e-05,5.89027582,-1.57549813,-1,-0.9998037011750389
1.24804905e+04,5.99999811e-01,-7.76320751e-12,3.69507973,7.74805211e-01,-3.84509847,7.50629130e-01,4.13634696e-05,5.89658056,-1.55661197,-1,-0.9997915999808675
1.31585018e+04,5.99999806e-01,-7.43626392e-12,3.69541120,7.68134629e-01,-3.84509847,7.50629130e-01,4.13637890e-05,5.90294840,-1.53753427,-1,-0.9997788526526974
1.38728109e+04,5.99999801e-01,-7.11988641e-12,3.69574111,7.61403449e-01,-3.84509847,7.50629130e-01,4.13642150e-05,5.90937680,-1.51827499,-1,-0.9997654228875702
1.46254653e+04,5.99999796e-01,-6.81385451e-12,3.69607163,7.54613985e-01,-3.84509847,7.50629130e-01,4.13647841e-05,5.91586389,-1.49883739,-1,-0.9997512721903244
1.54188462e+04,5.99999790e-01,-6.51883023e-12,3.69639680,7.47769198e-01,-3.84509847,7.50629129e-01,4.13655472e-05,5.92240699,-1.47922576,-1,-0.9997363557918865
1.62551968e+04,5.99999785e-01,-6.23411461e-12,3.69671920,7.40870595e-01,-3.84509847,7.50629129e-01,4.13665724e-05,5.92900553,-1.45944777,-1,-0.9997206315177284
1.71364501e+04,5.99999780e-01,-5.95950867e-12,3.69703870,7.33923146e-01,-3.84509847,7.50629129e-01,4.13679476e-05,5.93565484,-1.43951858,-1,-0.9997040630254096
1.80649864e+04,5.99999774e-01,-5.69410958e-12,3.69735148,7.26928898e-01,-3.84509847,7.50629128e-01,4.13697931e-05,5.94235236,-1.41944817,-1,-0.9996866055627773
1.90434977e+04,5.99999769e-01,-5.43969735e-12,3.69766687,7.19890445e-01,-3.84509847,7.50629127e-01,4.13722721e-05,5.94909546,-1.39923667,-1,-0.9996682085173899
2.00746502e+04,5.99999764e-01,-5.19547811e-12,3.69797793,7.12812675e-01,-3.84509847,7.50629126e-01,4.13756059e-05,5.95587930,-1.37890055,-1,-0.9996488217618728
2.11613111e+04,5.99999758e-01,-4.96031637e-12,3.69828910,7.05699013e-01,-3.84509847,7.50629125e-01,4.13800888e-05,5.96270094,-1.35844458,-1,-0.9996283913898392
2.23063844e+04,5.99999753e-01,-4.73464658e-12,3.69859314,6.98553639e-01,-3.84509847,7.50629123e-01,4.13861163e-05,5.96955632,-1.33788881,-1,-0.9996068628030236
2.35130461e+04,5.99999747e-01,-4.51824474e-12,3.69888894,6.91382294e-01,-3.84509847,7.50629120e-01,4.13942223e-05,5.97643966,-1.31724971,-1,-0.9995841762892734
2.47845274e+04,5.99999742e-01,-4.30998994e-12,3.69917253,6.84190555e-01,-3.84509847,7.50629116e-01,4.14051150e-05,5.98334547,-1.29654315,-1,-0.9995602710986176
2.61245421e+04,5.99999736e-01,-4.11166754e-12,3.69945493,6.76985186e-01,-3.84509847,7.50629111e-01,4.14197473e-05,5.99026787,-1.27578379,-1,-0.9995350774076958
2.75367981e+04,5.99999730e-01,-3.92180157e-12,3.69973077,6.69774809e-01,-3.84509847,7.50629105e-01,4.14393929e-05,5.99719876,-1.25500046,-1,-0.9995085255040738
2.90252765e+04,5.99999725e-01,-3.74058117e-12,3.69999925,6.62570334e-01,-3.84509847,7.50629096e-01,4.14657326e-05,6.00412768,-1.23421970,-1,-0.9994805405388689
3.05948664e+04,5.99999719e-01,-3.56791939e-12,3.70025950,6.55384827e-01,-3.84509847,7.50629084e-01,4.15010740e-05,6.01104118,-1.21348498,-1,-0.9994510305918403
3.22495926e+04,5.99999713e-01,-3.40378285e-12,3.70051094,6.48235066e-01,-3.84509847,7.50629068e-01,4.15482995e-05,6.01792295,-1.19284441,-1,-0.999419919992499
3.39943208e+04,5.99999708e-01,-3.24758330e-12,3.70075222,6.41140869e-01,-3.84509847,7.50629048e-01,4.16111996e-05,6.02475425,-1.17235205,-1,-0.9993871172605489
3.58342629e+04,5.99999702e-01,-3.10089866e-12,3.70098466,6.34126764e-01,-3.84509847,7.50629020e-01,4.16946681e-05,6.03151185,-1.15208247,-1,-0.9993525244067678
3.77750640e+04,5.99999696e-01,-2.96221966e-12,3.70120607,6.27223073e-01,-3.84509847,7.50628983e-01,4.18048622e-05,6.03816691,-1.13212206,-1,-0.9993160352973169
3.98228510e+04,5.99999690e-01,-2.83205677e-12,3.70141570,6.20464922e-01,-3.84509847,7.50628935e-01,4.19494083e-05,6.04468439,-1.11256913,-1,-0.9992775347400082
4.19840991e+04,5.99999684e-01,-2.71123962e-12,3.70161499,6.13892930e-01,-3.84509847,7.50628872e-01,4.21374926e-05,6.05102483,-1.09354891,-1,-0.9992369009942466
4.42654222e+04,5.99999678e-01,-2.59917061e-12,3.70180286,6.07553763e-01,-3.84509847,7.50628791e-01,4.23795661e-05,6.05714246,-1.07519388,-1,-0.9991940097117298
4.66772877e+04,5.99999672e-01,-2.49648341e-12,3.70197463,6.01502056e-01,-3.84509847,7.50628688e-01,4.26892474e-05,6.06298463,-1.05766721,-1,-0.9991486640942884
4.92249960e+04,5.99999666e-01,-2.40272906e-12,3.70213212,5.95778354e-01,-3.84509847,7.50628559e-01,4.30778494e-05,6.06851191,-1.04108375,-1,-0.999100764488807
5.19148771e+04,5.99999659e-01,-2.31786519e-12,3.70227502,5.90418724e-01,-3.84509847,7.50628399e-01,4.35561425e-05,6.07368993,-1.02554609,-1,-0.9990501918846036
5.47611384e+04,5.99999653e-01,-2.24182402e-12,3.70240702,5.85463420e-01,-3.84509847,7.50628205e-01,4.41384342e-05,6.07847907,-1.01117584,-1,-0.9989966791675603
5.77690358e+04,5.99999646e-01,-2.17442483e-12,3.70251873,5.80915467e-01,-3.84509847,7.50627974e-01,4.48302728e-05,6.08287574,-9.97981623e-01,-1,-0.9989401275212088
6.09467417e+04,5.99999640e-01,-2.11406574e-12,3.70261807,5.76755364e-01,-3.84509847,7.50627706e-01,4.56347866e-05,6.08689833,-9.85910427e-01,-1,-0.9988803832958021
6.43045103e+04,5.99999633e-01,-2.06087029e-12,3.70270818,5.72949170e-01,-3.84509847,7.50627401e-01,4.65521372e-05,6.09057932,-9.74865526e-01,-1,-0.9988172537015555
6.78482241e+04,5.99999626e-01,-2.01293181e-12,3.70278946,5.69433110e-01,-3.84509847,7.50627059e-01,4.75754525e-05,6.09398022,-9.64661153e-01,-1,-0.9987506281412593
7.15917025e+04,5.99999618e-01,-1.96915470e-12,3.70286404,5.66134409e-01,-3.84509847,7.50626685e-01,4.86985960e-05,6.09717123,-9.55084531e-01,-1,-0.9986802467956053
7.55492061e+04,5.99999610e-01,-1.92829299e-12,3.70293425,5.62962649e-01,-3.84509847,7.50626281e-01,4.99108609e-05,6.10024017,-9.45874975e-01,-1,-0.9986058415502594
7.97140243e+04,5.99999603e-01,-1.88900755e-12,3.70300226,5.59824682e-01,-3.84509847,7.50625853e-01,5.11934730e-05,6.10327688,-9.36761893e-01,-1,-0.9985275385715858
8.41201537e+04,5.99999594e-01,-1.84998222e-12,3.70306998,5.56620653e-01,-3.84509847,7.50625405e-01,5.25377316e-05,6.10637810,-9.27454050e-01,-1,-0.9984446986876165
8.87573704e+04,5.99999586e-01,-1.81002377e-12,3.70313914,5.53265048e-01,-3.84509847,7.50624944e-01,5.39226767e-05,6.10962668,-9.17703475e-01,-1,-0.9983575141184641
9.36496311e+04,5.99999577e-01,-1.76782633e-12,3.70321164,5.49646541e-01,-3.84509847,7.50624474e-01,5.53310869e-05,6.11313058,-9.07187999e-01,-1,-0.9982655344528791
9.87974759e+04,5.99999568e-01,-1.72233201e-12,3.70328872,5.45675934e-01,-3.84509847,7.50624004e-01,5.67414804e-05,6.11697642,-8.95646251e-01,-1,-0.9981687495364117
1.04226627e+05,5.99999559e-01,-1.67214479e-12,3.70337044,5.41206712e-01,-3.84509847,7.50623543e-01,5.81251246e-05,6.12130608,-8.82651432e-01,-1,-0.9980666757645482
1.09929335e+05,5.99999550e-01,-1.61637320e-12,3.70345923,5.36137503e-01,-3.84509847,7.50623101e-01,5.94508378e-05,6.12621833,-8.67907521e-01,-1,-0.9979594588341896
1.15915843e+05,5.99999541e-01,-1.55426887e-12,3.70355700,5.30313719e-01,-3.84509847,7.50622692e-01,6.06777138e-05,6.13186354,-8.50963472e-01,-1,-0.9978469061642427
1.22189915e+05,5.99999531e-01,-1.48488688e-12,3.70366319,5.23571455e-01,-3.84509847,7.50622333e-01,6.17556264e-05,6.13840071,-8.31339344e-01,-1,-0.9977289469875341
1.28747244e+05,5.99999522e-01,-1.40812498e-12,3.70377779,5.15774551e-01,-3.84509847,7.50622040e-01,6.26329077e-05,6.14596301,-8.08636656e-01,-1,-0.9976056622802105
1.35582296e+05,5.99999512e-01,-1.32484506e-12,3.70389508,5.06858547e-01,-3.84509847,7.50621829e-01,6.32666871e-05,6.15461371,-7.82662185e-01,-1,-0.9974771560873138
1.42697593e+05,5.99999503e-01,-1.23769095e-12,3.70401033,4.96917507e-01,-3.84509847,7.50621702e-01,6.36473455e-05,6.16426226,-7.53689564e-01,-1,-0.9973433809925815
1.50117820e+05,5.99999495e-01,-1.15017846e-12,3.70411303,4.86264972e-01,-3.84509847,7.50621645e-01,6.38199465e-05,6.17460645,-7.22629690e-01,-1,-0.9972038728919556
1.57891957e+05,5.99999486e-01,-1.06719168e-12,3.70419864,4.75336639e-01,-3.84509847,7.50621627e-01,6.38717318e-05,6.18522427,-6.90749340e-01,-1,-0.9970577109097309
1.66073285e+05,5.99999478e-01,-9.90370633e-13,3.70426026,4.64471816e-01,-3.84509847,7.50621624e-01,6.38805652e-05,6.19578653,-6.59027358e-01,-1,-0.9969038933068628
1.74695097e+05,5.99999470e-01,-9.20408515e-13,3.70430078,4.53797379e-01,-3.84509847,7.50621624e-01,6.38813361e-05,6.20617292,-6.27827556e-01,-1,-0.9967417941398057
1.83782313e+05,5.99999462e-01,-8.56361298e-13,3.70432102,4.43326734e-01,-3.84509847,7.50621624e-01,6.38813653e-05,6.21643533,-5.97085197e-01,-1,-0.9965709448862535
1.93366024e+05,5.99999454e-01,-7.97681596e-13,3.70431467,4.33053438e-01,-3.84509847,7.50621624e-01,6.38813657e-05,6.22643462,-5.67044208e-01,-1,-0.9963907610025855
2.03464449e+05,5.99999446e-01,-7.43778837e-13,3.70428969,4.22959236e-01,-3.84509847,7.50621624e-01,6.38813657e-05,6.23626439,-5.37516175e-01,-1,-0.9962008999523692
2.14109594e+05,5.99999438e-01,-6.94163076e-13,3.70423631,4.13035800e-01,-3.84509847,7.50621624e-01,6.38813657e-05,6.24593270,-5.08474431e-01,-1,-0.9960007599890178
2.25330077e+05,5.99999431e-01,-6.48517120e-13,3.70417175,4.03267575e-01,-3.84509847,7.50621624e-01,6.38813657e-05,6.25545254,-4.79872095e-01,-1,-0.9957898030639216
2.37152729e+05,5.99999424e-01,-6.06359023e-13,3.70409023,3.93645323e-01,-3.84509847,7.50621624e-01,6.38813657e-05,6.26483363,-4.51681916e-01,-1,-0.9955675247259568
2.49609223e+05,5.99999416e-01,-5.67385049e-13,3.70398558,3.84160431e-01,-3.84509847,7.50621624e-01,6.38813657e-05,6.27408425,-4.23883748e-01,-1,-0.9953333294892883
2.62739705e+05,5.99999409e-01,-5.31280393e-13,3.70386005,3.74805607e-01,-3.84509847,7.50621624e-01,6.38813658e-05,6.28321197,-3.96456399e-01,-1,-0.9950864625667368
2.76575088e+05,5.99999402e-01,-4.97823032e-13,3.70372032,3.65571135e-01,-3.84509847,7.50621624e-01,6.38813658e-05,6.29222486,-3.69367195e-01,-1,-0.9948263427612696
2.91151086e+05,5.99999395e-01,-4.66740254e-13,3.70355814,3.56452247e-01,-3.84509847,7.50621624e-01,6.38813658e-05,6.30112860,-3.42605059e-01,-1,-0.9945522986119857
3.06509403e+05,5.99999388e-01,-4.37859767e-13,3.70338209,3.47441085e-01,-3.84509847,7.50621624e-01,6.38813658e-05,6.30992950,-3.16150136e-01,-1,-0.9942635460396612
3.22688296e+05,5.99999381e-01,-4.10933761e-13,3.70318080,3.38532030e-01,-3.84509847,7.50621624e-01,6.38813658e-05,6.31863328,-2.89990179e-01,-1,-0.9939593657723108
3.39733025e+05,5.99999375e-01,-3.85943634e-13,3.70296237,3.29719801e-01,-3.84509847,7.50621624e-01,6.38813658e-05,6.32724472,-2.64099114e-01,-1,-0.9936389068741566
3.57689360e+05,5.99999368e-01,-3.62600535e-13,3.70272813,3.20998767e-01,-3.84509847,7.50621624e-01,6.38813658e-05,6.33576997,-2.38465324e-01,-1,-0.9933013088208822
3.76605967e+05,5.99999361e-01,-3.40821095e-13,3.70247785,3.12364542e-01,-3.84509847,7.50621624e-01,6.38813658e-05,6.34421251,-2.13077282e-01,-1,-0.9929456566403144
3.96539430e+05,5.99999355e-01,-3.20447624e-13,3.70220258,3.03814391e-01,-3.84509847,7.50621624e-01,6.38813659e-05,6.35257470,-1.87935532e-01,-1,-0.9925708864935213
4.17543371e+05,5.99999348e-01,-3.01458159e-13,3.70192704,2.95339241e-01,-3.84509847,7.50621624e-01,6.38813659e-05,6.36086503,-1.63005051e-01,-1,-0.9921759902302978
4.39664764e+05,5.99999342e-01,-2.83721075e-13,3.70162659,2.86939662e-01,-3.84509847,7.50621624e-01,6.38813660e-05,6.36908323,-1.38288657e-01,-1,-0.9917600846898567
4.62963603e+05,5.99999336e-01,-2.67085177e-13,3.70131105,2.78610850e-01,-3.84509847,7.50621624e-01,6.38813660e-05,6.37723411,-1.13768747e-01,-1,-0.9913220419216664
4.87509165e+05,5.99999329e-01,-2.51505399e-13,3.70097965,2.70350205e-01,-3.84509847,7.50621624e-01,6.38813661e-05,6.38532021,-8.94426252e-02,-1,-0.990860559444996
5.13376981e+05,5.99999323e-01,-2.36913507e-13,3.70063330,2.62155116e-01,-3.84509847,7.50621624e-01,6.38813663e-05,6.39334439,-6.53038092e-02,-1,-0.9903742171973123
5.40617784e+05,5.99999317e-01,-2.23230636e-13,3.70027313,2.54021565e-01,-3.84509847,7.50621624e-01,6.38813664e-05,6.40130981,-4.13404439e-02,-1,-0.9898620613446604
5.69307789e+05,5.99999311e-01,-2.10392163e-13,3.69989819,2.45946934e-01,-3.84509847,7.50621624e-01,6.38813666e-05,6.40921988,-1.75426061e-02,-1,-0.989322658964585
5.99548261e+05,5.99999305e-01,-1.98350391e-13,3.69950690,2.37929527e-01,-3.84509847,7.50621624e-01,6.38813669e-05,6.41707531,6.09256242e-03,-1,-0.9887541061681877
6.31385642e+05,5.99999299e-01,-1.87032639e-13,3.69909968,2.29966316e-01,-3.84509847,7.50621624e-01,6.38813672e-05,6.42487800,2.95705626e-02,-1,-0.9881555297968427
6.64927877e+05,5.99999292e-01,-1.76365102e-13,3.69867678,2.22055943e-01,-3.84509847,7.50621624e-01,6.38813676e-05,6.43262931,5.29005008e-02,-1,-0.9875249003706001
7.00269664e+05,5.99999286e-01,-1.66415663e-13,3.69824274,2.14196267e-01,-3.84509847,7.50621624e-01,6.38813681e-05,6.44033257,7.60897406e-02,-1,-0.9868604374670936
7.37475064e+05,5.99999280e-01,-1.57026072e-13,3.69779482,2.06384647e-01,-3.84509847,7.50621624e-01,6.38813688e-05,6.44799038,9.91446316e-02,-1,-0.9861609366718983
7.76698868e+05,5.99999275e-01,-1.48196029e-13,3.69733046,1.98620831e-01,-3.84509847,7.50621624e-01,6.38813697e-05,6.45560233,1.22065934e-01,-1,-0.985423487750812
8.17985884e+05,5.99999269e-01,-1.39892480e-13,3.69685986,1.90899737e-01,-3.84509847,7.50621624e-01,6.38813708e-05,6.46317397,1.44865788e-01,-1,-0.9846472482661339
8.61506622e+05,5.99999263e-01,-1.32077100e-13,3.69636948,1.83223307e-01,-3.84509847,7.50621624e-01,6.38813722e-05,6.47070392,1.67542711e-01,-1,-0.9838290124498684
