star_age,star_mass,star_mdot,log_Teff,log_R,log_surf_z,surface_h1,surface_he3,log_center_T,log_center_Rho,phase,x
4.58995336e+02,2.09999986,-3.08727645e-10,3.68942908,1.49767967,-3.84509847,7.50629130e-01,4.13624918e-05,5.71384565,-3.17502255,-1,-1.0
4.81065079e+02,2.09999986,-3.04760229e-10,3.68967218,1.49515569,-3.84509847,7.50629130e-01,4.13624918e-05,5.71628065,-3.16773685,-1,-0.9999920042113325
5.04134879e+02,2.09999985,-3.00428754e-10,3.68992408,1.49255757,-3.84509847,7.50629130e-01,4.13624918e-05,5.71878745,-3.16023504,-1,-0.9999836461056038
5.28276057e+02,2.09999984,-2.95671034e-10,3.69018237,1.48988084,-3.84509847,7.50629130e-01,4.13624918e-05,5.72137037,-3.15250467,-1,-0.9999748998434713
5.53530082e+02,2.09999983,-2.90735603e-10,3.69044806,1.48712429,-3.84509847,7.50629130e-01,4.13624918e-05,5.72403061,-3.14454256,-1,-0.9999657504008654
5.80004801e+02,2.09999983,-2.85724918e-10,3.69072078,1.48428322,-3.84509847,7.50629130e-01,4.13624918e-05,5.72677258,-3.13633452,-1,-0.9999561587052053
6.07815770e+02,2.09999982,-2.80686589e-10,3.69100158,1.48135278,-3.84509847,7.50629130e-01,4.13624918e-05,5.72960136,-3.12786595,-1,-0.9999460828909666
6.36849695e+02,2.09999981,-2.75616288e-10,3.69128934,1.47834353,-3.84509847,7.50629130e-01,4.13624918e-05,5.73250668,-3.11916738,-1,-0.9999355640041591
6.67342960e+02,2.09999980,-2.70504006e-10,3.69158833,1.47524349,-3.84509847,7.50629130e-01,4.13624918e-05,5.73549990,-3.11020711,-1,-0.999924516403708
6.99235240e+02,2.09999979,-2.65357988e-10,3.69190180,1.47205937,-3.84509847,7.50629130e-01,4.13624918e-05,5.73857451,-3.10100156,-1,-0.9999129619451443
7.32682208e+02,2.09999978,-2.60173847e-10,3.69221459,1.46878586,-3.84509847,7.50629130e-01,4.13624918e-05,5.74173578,-3.09153593,-1,-0.999900844228699
7.67643873e+02,2.09999978,-2.54966816e-10,3.69253460,1.46542852,-3.84509847,7.50629130e-01,4.13624918e-05,5.74497849,-3.08182830,-1,-0.9998881777429676
8.04395292e+02,2.09999977,-2.49958204e-10,3.69286219,1.46197773,-3.84509847,7.50629130e-01,4.13624919e-05,5.74831152,-3.07184784,-1,-0.9998748628357865
8.42750214e+02,2.09999976,-2.44952172e-10,3.69321710,1.45844657,-3.84509847,7.50629130e-01,4.13624919e-05,5.75172250,-3.06163408,-1,-0.9998609669852245
8.83045271e+02,2.09999975,-2.39703284e-10,3.69355942,1.45482147,-3.84509847,7.50629130e-01,4.13624919e-05,5.75522485,-3.05114678,-1,-0.9998463682307163
9.25138010e+02,2.09999974,-2.34440427e-10,3.69391132,1.45111293,-3.84509847,7.50629130e-01,4.13624919e-05,5.75880834,-3.04041582,-1,-0.9998311181824724
9.69324843e+02,2.09999973,-2.29181599e-10,3.69426985,1.44731201,-3.84509847,7.50629130e-01,4.13624919e-05,5.76248180,-3.02941644,-1,-0.9998151094514892
1.01549001e+03,2.09999972,-2.23883198e-10,3.69463540,1.44342737,-3.84509847,7.50629130e-01,4.13624919e-05,5.76623664,-3.01817271,-1,-0.9997983839771993
1.06396269e+03,2.09999971,-2.18573479e-10,3.69500723,1.43944970,-3.84509847,7.50629130e-01,4.13624919e-05,5.77008204,-3.00665866,-1,-0.9997808224992325
1.11455342e+03,2.09999970,-2.13268458e-10,3.69538570,1.43539035,-3.84509847,7.50629130e-01,4.13624919e-05,5.77400699,-2.99490614,-1,-0.9997624936593537
1.16774359e+03,2.09999968,-2.07977270e-10,3.69579907,1.43123434,-3.84509847,7.50629130e-01,4.13624919e-05,5.77802588,-2.98286985,-1,-0.9997432230516937
1.22333650e+03,2.09999967,-2.02676113e-10,3.69619765,1.42699459,-3.84509847,7.50629130e-01,4.13624919e-05,5.78212683,-2.97058810,-1,-0.9997230819399567
1.28150454e+03,2.09999966,-1.97382891e-10,3.69660372,1.42266877,-3.84509847,7.50629130e-01,4.13624920e-05,5.78631163,-2.95805261,-1,-0.9997020078678643
1.34246629e+03,2.09999965,-1.92263603e-10,3.69701712,1.41825575,-3.84509847,7.50629130e-01,4.13624920e-05,5.79058162,-2.94526114,-1,-0.9996799216446672
1.40635756e+03,2.09999964,-1.87105099e-10,3.69743691,1.41375605,-3.84509847,7.50629130e-01,4.13624920e-05,5.79493630,-2.93221567,-1,-0.9996567740668899
1.47321834e+03,2.09999963,-1.81981570e-10,3.69786211,1.40917277,-3.84509847,7.50629130e-01,4.13624921e-05,5.79937269,-2.91892618,-1,-0.9996325506462989
1.54320437e+03,2.09999961,-1.76935555e-10,3.69829356,1.40450693,-3.84509847,7.50629130e-01,4.13624922e-05,5.80388951,-2.90539565,-1,-0.9996071949588512
1.61646893e+03,2.09999960,-1.71922619e-10,3.69873159,1.39975904,-3.84509847,7.50629130e-01,4.13624922e-05,5.80848607,-2.89162734,-1,-0.9995806514717532
1.69318854e+03,2.09999959,-1.66964096e-10,3.69919907,1.39492842,-3.84509847,7.50629130e-01,4.13624923e-05,5.81316317,-2.87761526,-1,-0.9995528562324424
1.77351828e+03,2.09999957,-1.62069255e-10,3.69965288,1.39001742,-3.84509847,7.50629130e-01,4.13624924e-05,5.81791908,-2.86336734,-1,-0.9995237530559915
1.85762758e+03,2.09999956,-1.57265322e-10,3.70011211,1.38502770,-3.84509847,7.50629130e-01,4.13624926e-05,5.82275179,-2.84888464,-1,-0.9994932805585197
1.94570112e+03,2.09999955,-1.52491480e-10,3.70058377,1.37995954,-3.84509847,7.50629130e-01,4.13624928e-05,5.82766210,-2.83416873,-1,-0.9994613718311258
2.03791692e+03,2.09999953,-1.47823083e-10,3.70105378,1.37481485,-3.84509847,7.50629130e-01,4.13624930e-05,5.83264822,-2.81922594,-1,-0.9994279623778031
2.13445539e+03,2.09999952,-1.43225125e-10,3.70152870,1.36959544,-3.84509847,7.50629130e-01,4.13624934e-05,5.83770820,-2.80406307,-1,-0.9993929868366559
2.23551442e+03,2.09999951,-1.38688958e-10,3.70200899,1.36430263,-3.84509847,7.50629130e-01,4.13624938e-05,5.84284028,-2.78868184,-1,-0.9993563735128478
2.34129248e+03,2.09999949,-1.34209597e-10,3.70249581,1.35893740,-3.84509847,7.50629130e-01,4.13624943e-05,5.84804359,-2.77308993,-1,-0.99931805050141
2.45198332e+03,2.09999948,-1.29834102e-10,3.70298892,1.35350175,-3.84509847,7.50629130e-01,4.13624949e-05,5.85331590,-2.75729154,-1,-0.9992779476074131
2.56787234e+03,2.09999946,-1.25560577e-10,3.70348841,1.34799683,-3.84509847,7.50629130e-01,4.13624958e-05,5.85865625,-2.74128717,-1,-0.9992359614314614
2.68928105e+03,2.09999945,-1.21159693e-10,3.70399056,1.34241996,-3.84509847,7.50629130e-01,4.13624969e-05,5.86406810,-2.72506812,-1,-0.9991919754916364
2.81631421e+03,2.09999943,-1.16997909e-10,3.70451346,1.33677395,-3.84509847,7.50629130e-01,4.13624983e-05,5.86954856,-2.70864009,-1,-0.9991459518337658
2.94927954e+03,2.09999942,-1.12992354e-10,3.70502565,1.33106769,-3.84509847,7.50629130e-01,4.13625001e-05,5.87501644,-2.69216140,-1,-0.9990977789719981
3.08840676e+03,2.09999940,-1.09212435e-10,3.70553884,1.32529943,-3.84509847,7.50629130e-01,4.13625024e-05,5.88060467,-2.67539434,-1,-0.9990473736796023
3.23418834e+03,2.09999939,-1.05391195e-10,3.70605975,1.31946821,-3.84509847,7.50629130e-01,4.13625054e-05,5.88626577,-2.65842039,-1,-0.9989945575364649
3.38672087e+03,2.09999937,-1.01634687e-10,3.70657880,1.31357949,-3.84509847,7.50629130e-01,4.13625093e-05,5.89198598,-2.64127142,-1,-0.9989392955483757
3.54635734e+03,2.09999935,-9.79606542e-11,3.70710736,1.30763257,-3.84509847,7.50629130e-01,4.13625143e-05,5.89776304,-2.62395051,-1,-0.9988814598283247
3.71345381e+03,2.09999934,-9.44547519e-11,3.70763220,1.30163044,-3.84509847,7.50629130e-01,4.13625209e-05,5.90359670,-2.60646269,-1,-0.998820921377052
3.88835310e+03,2.09999932,-9.10342370e-11,3.70816300,1.29557238,-3.84509847,7.50629130e-01,4.13625294e-05,5.90948576,-2.58880868,-1,-0.9987575559921024
4.07143648e+03,2.09999931,-8.77047344e-11,3.70870898,1.28946120,-3.84509847,7.50629130e-01,4.13625405e-05,5.91542761,-2.57099734,-1,-0.9986912255407232
4.26304454e+03,2.09999929,-8.44710590e-11,3.70924694,1.28329894,-3.84509847,7.50629130e-01,4.13625550e-05,5.92142148,-2.55302734,-1,-0.9986218066283802
4.46358502e+03,2.09999927,-8.13241243e-11,3.70978791,1.27708745,-3.84509847,7.50629130e-01,4.13625738e-05,5.92746460,-2.53490748,-1,-0.9985491515323349
4.67347129e+03,2.09999926,-7.82765674e-11,3.71033374,1.27082874,-3.84509847,7.50629130e-01,4.13625985e-05,5.93355459,-2.51664683,-1,-0.9984731104901203
4.89312055e+03,2.09999924,-7.53208777e-11,3.71087744,1.26452618,-3.84509847,7.50629130e-01,4.13626307e-05,5.93968891,-2.49825207,-1,-0.9983935323516738
5.12316384e+03,2.09999922,-7.24500897e-11,3.71143226,1.25817687,-3.84509847,7.50629130e-01,4.13626730e-05,5.94587052,-2.47971967,-1,-0.9983101884934686
5.36389564e+03,2.09999921,-6.96810024e-11,3.71197901,1.25178607,-3.84509847,7.50629130e-01,4.13627283e-05,5.95209381,-2.46106360,-1,-0.9982229722264578
5.61583440e+03,2.09999919,-6.69980857e-11,3.71253439,1.24535297,-3.84509847,7.50629130e-01,4.13628008e-05,5.95835960,-2.44227613,-1,-0.9981316957180676
5.87949769e+03,2.09999917,-6.44233910e-11,3.71309339,1.23888087,-3.84509847,7.50629130e-01,4.13628958e-05,5.96466472,-2.42336573,-1,-0.9980361714545445
6.15554990e+03,2.09999915,-6.20352041e-11,3.71364826,1.23237519,-3.84509847,7.50629130e-01,4.13630213e-05,5.97100418,-2.40435329,-1,-0.9979361587297767
6.44427269e+03,2.09999914,-5.96107173e-11,3.71420177,1.22583540,-3.84509847,7.50629130e-01,4.13631856e-05,5.97737856,-2.38523457,-1,-0.9978315554993571
6.74658151e+03,2.09999912,-5.72646569e-11,3.71475814,1.21925987,-3.84509847,7.50629130e-01,4.13634017e-05,5.98378986,-2.36600812,-1,-0.9977220300990367
7.06310041e+03,2.09999910,-5.49961932e-11,3.71532094,1.21264995,-3.84509847,7.50629130e-01,4.13636861e-05,5.99023689,-2.34667842,-1,-0.9976073564377409
7.39413203e+03,2.09999908,-5.28001452e-11,3.71588027,1.20600834,-3.84509847,7.50629130e-01,4.13640581e-05,5.99671632,-2.32725260,-1,-0.9974874248700837
7.74069393e+03,2.09999907,-5.06816517e-11,3.71644994,1.19933450,-3.84509847,7.50629130e-01,4.13645469e-05,6.00322849,-2.30772452,-1,-0.99736186673773
8.10355601e+03,2.09999905,-4.86412927e-11,3.71700860,1.19263098,-3.84509847,7.50629130e-01,4.13651912e-05,6.00977093,-2.28810184,-1,-0.9972304031086733
8.48315195e+03,2.09999903,-4.66699650e-11,3.71756946,1.18589913,-3.84509847,7.50629129e-01,4.13660354e-05,6.01634271,-2.26838863,-1,-0.9970928768622063
8.88030709e+03,2.09999901,-4.47692869e-11,3.71813129,1.17914087,-3.84509847,7.50629129e-01,4.13671415e-05,6.02294199,-2.24859843,-1,-0.9969489889806097
9.29617421e+03,2.09999899,-4.29440858e-11,3.71869141,1.17235761,-3.84509847,7.50629128e-01,4.13685989e-05,6.02956748,-2.22873103,-1,-0.9967983218158275
9.73151031e+03,2.09999898,-4.11831210e-11,3.71925065,1.16555071,-3.84509847,7.50629128e-01,4.13705166e-05,6.03621695,-2.20878916,-1,-0.996640601109477
1.01869990e+04,2.09999896,-3.94878898e-11,3.71980906,1.15872410,-3.84509847,7.50629127e-01,4.13730310e-05,6.04288689,-2.18878144,-1,-0.9964755791921092
1.06635823e+04,2.09999894,-3.78572902e-11,3.72036621,1.15187702,-3.84509847,7.50629126e-01,4.13763261e-05,6.04957838,-2.16870713,-1,-0.9963029147732594
1.11622982e+04,2.09999892,-3.62810068e-11,3.72092265,1.14501283,-3.84509847,7.50629124e-01,4.13806429e-05,6.05628835,-2.14857810,-1,-0.9961222317928766
1.16846287e+04,2.09999890,-3.47791206e-11,3.72147712,1.13813286,-3.84509847,7.50629122e-01,4.13863300e-05,6.06301600,-2.12839685,-1,-0.9959329933276807
1.22312900e+04,2.09999888,-3.33327248e-11,3.72202710,1.13124125,-3.84509847,7.50629120e-01,4.13937914e-05,6.06975729,-2.10817693,-1,-0.9957349399009824
1.28033893e+04,2.09999887,-3.19401276e-11,3.72258095,1.12433962,-3.84509847,7.50629117e-01,4.14035618e-05,6.07650997,-2.08792760,-1,-0.9955276703781961
1.34020984e+04,2.09999885,-3.06062758e-11,3.72312695,1.11743429,-3.84509847,7.50629112e-01,4.14163441e-05,6.08326695,-2.06766150,-1,-0.9953107602203883
1.40286853e+04,2.09999883,-2.93279434e-11,3.72366917,1.11052929,-3.84509847,7.50629107e-01,4.14330536e-05,6.09002476,-2.04739061,-1,-0.9950837500357105
1.46844643e+04,2.09999881,-2.81013273e-11,3.72420602,1.10363074,-3.84509847,7.50629100e-01,4.14548602e-05,6.09677812,-2.02712983,-1,-0.9948461636579903
1.53712156e+04,2.09999879,-2.69261611e-11,3.72474161,1.09674475,-3.84509847,7.50629090e-01,4.14833630e-05,6.10352109,-2.00689773,-1,-0.9945973561271582
1.60904043e+04,2.09999877,-2.58060260e-11,3.72527523,1.08988032,-3.84509847,7.50629078e-01,4.15205638e-05,6.11024508,-1.98673024,-1,-0.9943367966427431
1.68433188e+04,2.09999875,-2.47359229e-11,3.72580461,1.08304715,-3.84509847,7.50629062e-01,4.15689046e-05,6.11693986,-1.96665105,-1,-0.9940640184220498
1.76316201e+04,2.09999873,-2.37132649e-11,3.72633046,1.07625722,-3.84509847,7.50629041e-01,4.16315200e-05,6.12359339,-1.94669554,-1,-0.9937784196907409
1.84570234e+04,2.09999872,-2.27453074e-11,3.72684589,1.06952617,-3.84509847,7.50629014e-01,4.17123913e-05,6.13019000,-1.92690695,-1,-0.993479379038013
1.93213322e+04,2.09999870,-2.18238957e-11,3.72735151,1.06287369,-3.84509847,7.50628979e-01,4.18163226e-05,6.13671042,-1.90734751,-1,-0.9931662430622901
2.02274610e+04,2.09999868,-2.09528335e-11,3.72785007,1.05632224,-3.84509847,7.50628935e-01,4.19499701e-05,6.14313257,-1.88807983,-1,-0.9928379558506839
2.11770794e+04,2.09999866,-2.01318575e-11,3.72833764,1.04989664,-3.84509847,7.50628878e-01,4.21203848e-05,6.14943312,-1.86917662,-1,-0.9924939125131077
2.21718762e+04,2.09999864,-1.93580061e-11,3.72881173,1.04362333,-3.84509847,7.50628806e-01,4.23354136e-05,6.15558633,-1.85071390,-1,-0.9921335012033836
2.32147863e+04,2.09999862,-1.86388121e-11,3.72927131,1.03753483,-3.84509847,7.50628716e-01,4.26051245e-05,6.16156031,-1.83279182,-1,-0.9917556586177767
2.43093345e+04,2.09999860,-1.79692369e-11,3.72971498,1.03166849,-3.84509847,7.50628604e-01,4.29415355e-05,6.16731773,-1.81552308,-1,-0.9913591077338995
2.54560321e+04,2.09999858,-1.73487560e-11,3.73013597,1.02604459,-3.84509847,7.50628467e-01,4.33525927e-05,6.17283818,-1.79896556,-1,-0.9909436633095975
2.66605475e+04,2.09999856,-1.67810229e-11,3.73053340,1.02070779,-3.84509847,7.50628300e-01,4.38535295e-05,6.17807678,-1.78325164,-1,-0.9905072717038979
2.79239062e+04,2.09999854,-1.62602045e-11,3.73090748,1.01566687,-3.84509847,7.50628101e-01,4.44510533e-05,6.18302553,-1.76840637,-1,-0.9900495613818318
2.92489784e+04,2.09999852,-1.57852373e-11,3.73125771,1.01093166,-3.84509847,7.50627867e-01,4.51523612e-05,6.18767474,-1.75445671,-1,-0.989569492480242
3.06393633e+04,2.09999850,-1.53531887e-11,3.73158445,1.00649869,-3.84509847,7.50627597e-01,4.59627927e-05,6.19202809,-1.74139517,-1,-0.9890657610218883
3.20983944e+04,2.09999847,-1.49597879e-11,3.73188936,1.00234702,-3.84509847,7.50627290e-01,4.68832610e-05,6.19610616,-1.72916084,-1,-0.9885371592916864
3.36287422e+04,2.09999845,-1.45992314e-11,3.73217570,9.98436224e-01,-3.84509847,7.50626948e-01,4.79093236e-05,6.19994824,-1.71763445,-1,-0.9879827197770725
3.52319883e+04,2.09999843,-1.42648807e-11,3.73244790,9.94710821e-01,-3.84509847,7.50626574e-01,4.90314409e-05,6.20360889,-1.70665197,-1,-0.9874018694700439
3.69126870e+04,2.09999840,-1.39499962e-11,3.73272027,9.91109581e-01,-3.84509847,7.50626171e-01,5.02406617e-05,6.20714827,-1.69603455,-1,-0.9867929583640587
3.86770339e+04,2.09999838,-1.36498097e-11,3.73297956,9.87557208e-01,-3.84509847,7.50625743e-01,5.15243526e-05,6.21063972,-1.68556191,-1,-0.9861537418154764
4.05191466e+04,2.09999836,-1.33541977e-11,3.73323876,9.83978451e-01,-3.84509847,7.50625298e-01,5.28597228e-05,6.21415719,-1.67501027,-1,-0.9854863509967018
4.24557220e+04,2.09999833,-1.30556169e-11,3.73350523,9.80276513e-01,-3.84509847,7.50624840e-01,5.42341860e-05,6.21779590,-1.66409591,-1,-0.9847847366807998
4.44772938e+04,2.09999830,-1.27481828e-11,3.73378707,9.76382046e-01,-3.84509847,7.50624378e-01,5.56211585e-05,6.22162380,-1.65261412,-1,-0.9840523284742803
4.65932855e+04,2.09999828,-1.24260031e-11,3.73408808,9.72193699e-01,-3.84509847,7.50623919e-01,5.69980520e-05,6.22574057,-1.64026384,-1,-0.9832857122769199
4.88074528e+04,2.09999825,-1.20803095e-11,3.73441712,9.67605505e-01,-3.84509847,7.50623473e-01,5.83341480e-05,6.23025076,-1.62673077,-1,-0.9824835274120898
5.11182721e+04,2.09999822,-1.17060202e-11,3.73477973,9.62533364e-01,-3.84509847,7.50623052e-01,5.95989635e-05,6.23523745,-1.61176778,-1,-0.9816463258746012
5.35289020e+04,2.09999820,-1.13008522e-11,3.73518580,9.56867610e-01,-3.84509847,7.50622666e-01,6.07549760e-05,6.24080862,-1.59505193,-1,-0.9807729633150121
5.60389298e+04,2.09999817,-1.08605068e-11,3.73563450,9.50518031e-01,-3.84509847,7.50622330e-01,6.17642267e-05,6.24705353,-1.57631505,-1,-0.979863589253051
5.86530627e+04,2.09999814,-1.03835387e-11,3.73613503,9.43375887e-01,-3.84509847,7.50622058e-01,6.25802798e-05,6.25407970,-1.55523834,-1,-0.9789164982870547
6.13671733e+04,2.09999811,-9.87721939e-12,3.73668795,9.35454785e-01,-3.84509847,7.50621856e-01,6.31846673e-05,6.26187421,-1.53185102,-1,-0.9779331857592278
6.41852590e+04,2.09999809,-9.35381910e-12,3.73728723,9.26813004e-01,-3.84509847,7.50621727e-01,6.35719677e-05,6.27038005,-1.50633133,-1,-0.9769122034258994
6.71145278e+04,2.09999806,-8.82674465e-12,3.73791975,9.17629181e-01,-3.84509847,7.50621660e-01,6.37743757e-05,6.27933534,-1.47908858,-1,-0.9758509398545429
7.01615242e+04,2.09999803,-8.31578951e-12,3.73856671,9.08215701e-01,-3.84509847,7.50621638e-01,6.38385909e-05,6.28638669,-1.44754417,-1,-0.9747470239963006
7.33471342e+04,2.09999801,-7.83924491e-12,3.73921449,8.98836549e-01,-3.84509847,7.50621630e-01,6.38625560e-05,6.29382164,-1.41577580,-1,-0.9735928889283447
7.66825012e+04,2.09999798,-7.39519531e-12,3.73985227,8.89565022e-01,-3.84509847,7.50621627e-01,6.38732192e-05,6.30133317,-1.38463541,-1,-0.9723844974368557
8.01745026e+04,2.09999796,-6.98262423e-12,3.74047908,8.80418054e-01,-3.84509847,7.50621625e-01,6.38780276e-05,6.30888991,-1.35380809,-1,-0.9711193578645003
8.38307215e+04,2.09999793,-6.59833230e-12,3.74109488,8.71404317e-01,-3.84509847,7.50621625e-01,6.38800967e-05,6.31643147,-1.32322838,-1,-0.9697947228813691
8.76587958e+04,2.09999791,-6.24002297e-12,3.74170208,8.62524266e-01,-3.84509847,7.50621624e-01,6.38809230e-05,6.32393675,-1.29284733,-1,-0.9684078253037088
9.16667077e+04,2.09999789,-5.90654595e-12,3.74230184,8.53776824e-01,-3.84509847,7.50621624e-01,6.38812254e-05,6.33139069,-1.26262554,-1,-0.9669557732091123
9.58644722e+04,2.09999786,-5.59552357e-12,3.74288815,8.45162509e-01,-3.84509847,7.50621625e-01,6.38813247e-05,6.33879152,-1.23253654,-1,-0.9654349381990295
1.00260124e+05,2.09999784,-5.30508483e-12,3.74347087,8.36674280e-01,-3.84509847,7.50621625e-01,6.38813548e-05,6.34614579,-1.20251611,-1,-0.9638424093304916
1.04860855e+05,2.09999781,-5.03315819e-12,3.74404590,8.28311766e-01,-3.84509847,7.50621625e-01,6.38813631e-05,6.35344987,-1.17254988,-1,-0.9621755810039445
1.09680513e+05,2.09999779,-4.77985523e-12,3.74462262,8.20073976e-01,-3.84509847,7.50621625e-01,6.38813651e-05,6.36070845,-1.14260893,-1,-0.9604294362111564
1.14726538e+05,2.09999777,-4.54234026e-12,3.74519187,8.11959433e-01,-3.84509847,7.50621625e-01,6.38813655e-05,6.36792850,-1.11267313,-1,-0.9586012794668337
1.20009289e+05,2.09999774,-4.32059770e-12,3.74575771,8.03967171e-01,-3.84509847,7.50621625e-01,6.38813655e-05,6.37511609,-1.08272673,-1,-0.9566873577424612
1.25543380e+05,2.09999772,-4.11294823e-12,3.74632227,7.96098056e-01,-3.84509847,7.50621625e-01,6.38813655e-05,6.38227721,-1.05275048,-1,-0.9546823764382969
1.31336442e+05,2.09999770,-3.91841013e-12,3.74688727,7.88350692e-01,-3.84509848,7.50621626e-01,6.38813655e-05,6.38942455,-1.02271935,-1,-0.9525835708704332
1.37404972e+05,2.09999767,-3.73575360e-12,3.74745095,7.80727708e-01,-3.84509848,7.50621626e-01,6.38813654e-05,6.39656525,-9.92612079e-01,-1,-0.9503849642349875
1.43759478e+05,2.09999765,-3.56575001e-12,3.74801960,7.73228621e-01,-3.84509848,7.50621626e-01,6.38813653e-05,6.40370449,-9.62421161e-01,-1,-0.9480827495212795
1.50413717e+05,2.09999763,-3.40605702e-12,3.74859223,7.65855683e-01,-3.84509848,7.50621627e-01,6.38813653e-05,6.41084974,-9.32126886e-01,-1,-0.9456719426175909
1.57386800e+05,2.09999761,-3.25668455e-12,3.74917549,7.58613090e-01,-3.84509848,7.50621627e-01,6.38813652e-05,6.41801317,-9.01701086e-01,-1,-0.9431456196772227
1.64685706e+05,2.09999758,-3.11616935e-12,3.74975631,7.51501295e-01,-3.84509848,7.50621628e-01,6.38813651e-05,6.42520271,-8.71132710e-01,-1,-0.9405012522335264
