star_age,star_mass,star_mdot,log_Teff,log_R,log_surf_z,surface_h1,surface_he3,log_center_T,log_center_Rho,phase,x
1.61251781e+02,7.59999939,-2.56904675e-09,3.66078904,2.02663306,-3.84509848,7.50629131e-01,4.13624918e-05,5.71407605,-4.21780944,-1,-1.0
1.68287353e+02,7.59999937,-2.52048950e-09,3.66093350,2.02479425,-3.84509848,7.50629131e-01,4.13624918e-05,5.71590794,-4.21231486,-1,-0.9999672352703984
1.75596811e+02,7.59999935,-2.48552345e-09,3.66107949,2.02290405,-3.84509848,7.50629131e-01,4.13624918e-05,5.71779080,-4.20666578,-1,-0.9999331950509387
1.83198458e+02,7.59999933,-2.45604952e-09,3.66124073,2.02095947,-3.84509848,7.50629131e-01,4.13624918e-05,5.71972754,-4.20085418,-1,-0.9998977941043659
1.91111717e+02,7.59999932,-2.42589389e-09,3.66141752,2.01895784,-3.84509848,7.50629131e-01,4.13624918e-05,5.72172080,-4.19487296,-1,-0.9998609419775732
1.99363959e+02,7.59999930,-2.39509490e-09,3.66157979,2.01689619,-3.84509848,7.50629131e-01,4.13624918e-05,5.72377382,-4.18871351,-1,-0.9998225112035385
2.08003921e+02,7.59999927,-2.36335511e-09,3.66174523,2.01476747,-3.84509848,7.50629131e-01,4.13624918e-05,5.72589353,-4.18235429,-1,-0.9997822748135622
2.17027017e+02,7.59999925,-2.33199741e-09,3.66191750,2.01256951,-3.84509848,7.50629131e-01,4.13624918e-05,5.72808169,-4.17578788,-1,-0.9997402541646926
2.20264123e+02,7.59999925,-2.31487821e-09,3.66974279,2.01121078,-3.84509848,7.50629131e-01,4.13624918e-05,5.72895628,-4.17318832,-1,-0.9997251789294762
2.22387421e+02,7.59999924,-2.30048156e-09,3.67903418,2.01001380,-3.84509848,7.50629131e-01,4.13624918e-05,5.72957827,-4.17135162,-1,-0.9997152907093239
2.27851440e+02,7.59999922,-3.91304952e-09,3.68437403,2.00808951,-3.84509847,7.50629130e-01,4.13624918e-05,5.73117208,-4.16659184,-1,-0.9996898447178575
2.37712664e+02,7.59999918,-3.75791810e-09,3.68468080,2.00525354,-3.84509847,7.50629130e-01,4.13624918e-05,5.73400037,-4.15810749,-1,-0.9996439208984579
2.47992173e+02,7.59999915,-3.61614099e-09,3.68498465,2.00235825,-3.84509847,7.50629130e-01,4.13624918e-05,5.73688846,-4.14944167,-1,-0.9995960491216042
2.58712485e+02,7.59999911,-3.47265837e-09,3.68529393,1.99939457,-3.84509847,7.50629130e-01,4.13624918e-05,5.73984448,-4.14057290,-1,-0.9995461245207438
2.69859564e+02,7.59999907,-3.32190631e-09,3.68561273,1.99636525,-3.84509847,7.50629130e-01,4.13624918e-05,5.74286559,-4.13150889,-1,-0.9994942124616698
2.81541934e+02,7.59999904,-3.16797570e-09,3.68594298,1.99325489,-3.84509847,7.50629130e-01,4.13624918e-05,5.74596752,-4.12220142,-1,-0.9994398075470223
2.93702510e+02,7.59999900,-3.01549907e-09,3.68627580,1.99007513,-3.84509847,7.50629130e-01,4.13624918e-05,5.74913833,-4.11268634,-1,-0.9993831756222208
3.06356372e+02,7.59999896,-2.86496638e-09,3.68661605,1.98682538,-3.84509847,7.50629130e-01,4.13624918e-05,5.75237880,-4.10296304,-1,-0.9993242464595534
3.19574170e+02,7.59999893,-2.71856599e-09,3.68697362,1.98349827,-3.84509847,7.50629130e-01,4.13624918e-05,5.75569620,-4.09301119,-1,-0.9992626910412593
3.33369139e+02,7.59999889,-2.57603055e-09,3.68732530,1.98009600,-3.84509847,7.50629130e-01,4.13624918e-05,5.75908831,-4.08283232,-1,-0.9991984477318102
3.47707825e+02,7.59999885,-2.43850450e-09,3.68768824,1.97662508,-3.84509847,7.50629130e-01,4.13624918e-05,5.76254842,-4.07244898,-1,-0.9991316723268208
3.62724430e+02,7.59999882,-2.30698331e-09,3.68808167,1.97307134,-3.84509847,7.50629130e-01,4.13624918e-05,5.76609079,-4.06182208,-1,-0.9990617398462266
3.78331991e+02,7.59999879,-2.21243284e-09,3.68846041,1.96944982,-3.84509847,7.50629130e-01,4.13624918e-05,5.76970049,-4.05099042,-1,-0.9989890552775936
3.94640086e+02,7.59999875,-2.16265998e-09,3.68884797,1.96575096,-3.84509847,7.50629130e-01,4.13624918e-05,5.77338654,-4.03993039,-1,-0.9989131083150734
4.11613777e+02,7.59999871,-2.11490614e-09,3.68924249,1.96198191,-3.84509847,7.50629130e-01,4.13624918e-05,5.77714215,-4.02866139,-1,-0.9988340616652834
4.29341387e+02,7.59999868,-2.06702632e-09,3.68964809,1.95813641,-3.84509847,7.50629130e-01,4.13624918e-05,5.78096753,-4.01716211,-1,-0.998751504007124
4.47776711e+02,7.59999864,-2.01882262e-09,3.69005431,1.95422246,-3.84509847,7.50629130e-01,4.13624918e-05,5.78483935,-4.00543193,-1,-0.9986656505177448
4.67067399e+02,7.59999860,-1.97210411e-09,3.69048220,1.95022972,-3.84509847,7.50629130e-01,4.13624918e-05,5.78876132,-3.99343375,-1,-0.9985758135896103
4.87128804e+02,7.59999856,-1.92523982e-09,3.69091513,1.94616919,-3.84509847,7.50629130e-01,4.13624918e-05,5.79272723,-3.98119836,-1,-0.9984823874246513
5.08051339e+02,7.59999852,-1.87857062e-09,3.69134626,1.94203750,-3.84509847,7.50629130e-01,4.13624918e-05,5.79673793,-3.96870971,-1,-0.9983849509686169
5.29892700e+02,7.59999848,-1.83232534e-09,3.69179325,1.93783306,-3.84509847,7.50629130e-01,4.13624918e-05,5.80079490,-3.95596101,-1,-0.9982832355306545
5.52632151e+02,7.59999844,-1.78613475e-09,3.69223373,1.93356230,-3.84509847,7.50629130e-01,4.13624918e-05,5.80489509,-3.94296622,-1,-0.9981773376785248
5.76315934e+02,7.59999840,-1.74086592e-09,3.69268277,1.92922540,-3.84509847,7.50629130e-01,4.13624918e-05,5.80903744,-3.92972382,-1,-0.9980670420627684
6.01062415e+02,7.59999836,-1.69586457e-09,3.69313188,1.92481870,-3.84509847,7.50629130e-01,4.13624918e-05,5.81322418,-3.91621570,-1,-0.9979517974517323
6.26846544e+02,7.59999832,-1.65117438e-09,3.69359914,1.92034701,-3.84509847,7.50629130e-01,4.13624918e-05,5.81745277,-3.90245311,-1,-0.9978317205035186
6.53708580e+02,7.59999827,-1.60696880e-09,3.69406778,1.91581188,-3.84509847,7.50629130e-01,4.13624918e-05,5.82172148,-3.88843770,-1,-0.997706623731559
6.81705650e+02,7.59999823,-1.56363725e-09,3.69454182,1.91121454,-3.84509847,7.50629130e-01,4.13624918e-05,5.82602970,-3.87416882,-1,-0.99757624109484
7.10881292e+02,7.59999818,-1.52108483e-09,3.69501876,1.90655711,-3.84509847,7.50629130e-01,4.13624919e-05,5.83037499,-3.85964823,-1,-0.9974403698364571
7.41300129e+02,7.59999814,-1.47882446e-09,3.69552627,1.90183772,-3.84509847,7.50629130e-01,4.13624919e-05,5.83476035,-3.84486714,-1,-0.9972987090064492
7.73031691e+02,7.59999809,-1.43761260e-09,3.69601434,1.89706144,-3.84509847,7.50629130e-01,4.13624919e-05,5.83918140,-3.82982896,-1,-0.9971509348029066
8.06108089e+02,7.59999805,-1.39688198e-09,3.69651490,1.89222936,-3.84509847,7.50629130e-01,4.13624919e-05,5.84363961,-3.81453629,-1,-0.9969968976845792
8.40577043e+02,7.59999800,-1.35670980e-09,3.69701453,1.88734403,-3.84509847,7.50629130e-01,4.13624919e-05,5.84813306,-3.79898932,-1,-0.9968363754189468
8.76502712e+02,7.59999795,-1.31719002e-09,3.69752451,1.88240644,-3.84509847,7.50629130e-01,4.13624919e-05,5.85266381,-3.78318385,-1,-0.9966690692169007
9.13942517e+02,7.59999790,-1.27853574e-09,3.69802889,1.87741948,-3.84509847,7.50629130e-01,4.13624919e-05,5.85722919,-3.76712372,-1,-0.9964947116682661
9.52967967e+02,7.59999785,-1.24084479e-09,3.69853860,1.87238566,-3.84509847,7.50629130e-01,4.13624919e-05,5.86182915,-3.75080700,-1,-0.9963129697549106
9.93652536e+02,7.59999780,-1.20388613e-09,3.69908948,1.86730299,-3.84509847,7.50629130e-01,4.13624919e-05,5.86646606,-3.73422660,-1,-0.9961235013076766
1.03604240e+03,7.59999775,-1.16768134e-09,3.69961331,1.86217858,-3.84509847,7.50629130e-01,4.13624919e-05,5.87113528,-3.71739632,-1,-0.9959260912844675
1.08022432e+03,7.59999770,-1.13233048e-09,3.70014426,1.85701363,-3.84509847,7.50629130e-01,4.13624919e-05,5.87583762,-3.70031158,-1,-0.9957203356384334
1.12629032e+03,7.59999765,-1.09747555e-09,3.70067604,1.85180969,-3.84509847,7.50629130e-01,4.13624919e-05,5.88057382,-3.68297062,-1,-0.9955058058128801
1.17431992e+03,7.59999760,-1.06387224e-09,3.70121226,1.84657015,-3.84509847,7.50629130e-01,4.13624919e-05,5.88534377,-3.66537617,-1,-0.9952821314823674
1.22437892e+03,7.59999755,-1.03083657e-09,3.70176052,1.84129645,-3.84509847,7.50629130e-01,4.13624919e-05,5.89014982,-3.64752567,-1,-0.9950490062156334
1.27654524e+03,7.59999750,-9.98807557e-10,3.70230436,1.83599278,-3.84509847,7.50629130e-01,4.13624919e-05,5.89499133,-3.62941929,-1,-0.9948060671384538
1.33090386e+03,7.59999744,-9.67533706e-10,3.70285237,1.83066148,-3.84509847,7.50629130e-01,4.13624920e-05,5.89986806,-3.61106184,-1,-0.9945529184981134
1.38754302e+03,7.59999739,-9.37058629e-10,3.70340042,1.82530511,-3.84509847,7.50629130e-01,4.13624920e-05,5.90477965,-3.59245143,-1,-0.9942891493600445
1.44658080e+03,7.59999734,-9.07468189e-10,3.70397660,1.81992462,-3.84509847,7.50629130e-01,4.13624920e-05,5.90972769,-3.57358199,-1,-0.9940142098244987
1.50817888e+03,7.59999728,-8.78687675e-10,3.70453228,1.81452457,-3.84509847,7.50629130e-01,4.13624920e-05,5.91471121,-3.55445389,-1,-0.9937273469460891
1.57235608e+03,7.59999723,-8.50784780e-10,3.70509262,1.80910826,-3.84509847,7.50629130e-01,4.13624920e-05,5.91973061,-3.53507222,-1,-0.9934284730798862
1.63921551e+03,7.59999717,-8.23770764e-10,3.70565890,1.80367894,-3.84509847,7.50629130e-01,4.13624920e-05,5.92478665,-3.51543862,-1,-0.9931171080415827
1.70888230e+03,7.59999712,-7.97206922e-10,3.70622876,1.79822942,-3.84509847,7.50629130e-01,4.13624920e-05,5.92979280,-3.49559296,-1,-0.9927926690995093
1.78159093e+03,7.59999706,-7.71900875e-10,3.70679595,1.79277956,-3.84509847,7.50629130e-01,4.13624920e-05,5.93486762,-3.47552090,-1,-0.9924540642779464
1.85733517e+03,7.59999700,-7.47267969e-10,3.70738608,1.78732524,-3.84509847,7.50629130e-01,4.13624921e-05,5.94003962,-3.45511337,-1,-0.9921013225900666
1.93620814e+03,7.59999694,-7.23232510e-10,3.70796813,1.78187005,-3.84509847,7.50629130e-01,4.13624921e-05,5.94526759,-3.43444983,-1,-0.9917340103750931
2.01856260e+03,7.59999689,-7.00474098e-10,3.70854505,1.77642192,-3.84509847,7.50629130e-01,4.13624921e-05,5.95054279,-3.41352123,-1,-0.9913504848261561
2.10433248e+03,7.59999683,-6.78183931e-10,3.70912044,1.77098165,-3.84509847,7.50629130e-01,4.13624921e-05,5.95586036,-3.39233094,-1,-0.9909510536319103
2.19366900e+03,7.59999677,-6.56619011e-10,3.70971098,1.76554921,-3.84509847,7.50629130e-01,4.13624921e-05,5.96122035,-3.37083215,-1,-0.9905350125592941
2.28694273e+03,7.59999671,-6.35931729e-10,3.71029111,1.76013594,-3.84509847,7.50629130e-01,4.13624922e-05,5.96663554,-3.34909071,-1,-0.9901006358600885
2.38410366e+03,7.59999665,-6.15893447e-10,3.71088350,1.75474295,-3.84509847,7.50629130e-01,4.13624922e-05,5.97210406,-3.32708903,-1,-0.9896481564313668
2.48533015e+03,7.59999659,-5.96540669e-10,3.71147251,1.74937447,-3.84509847,7.50629130e-01,4.13624922e-05,5.97762484,-3.30482395,-1,-0.9891767436488141
2.59098035e+03,7.59999653,-5.77973112e-10,3.71205638,1.74403595,-3.84509847,7.50629130e-01,4.13624922e-05,5.98320324,-3.28226779,-1,-0.9886847296042766
2.70100173e+03,7.59999646,-5.60179170e-10,3.71264153,1.73873289,-3.84509847,7.50629130e-01,4.13624922e-05,5.98884081,-3.25943462,-1,-0.9881723589304926
2.81577907e+03,7.59999640,-5.43045035e-10,3.71322816,1.73347019,-3.84509847,7.50629130e-01,4.13624923e-05,5.99454108,-3.23628944,-1,-0.9876378397031302
2.93543261e+03,7.59999634,-5.26533125e-10,3.71381498,1.72825585,-3.84509847,7.50629130e-01,4.13624923e-05,6.00030357,-3.21286052,-1,-0.9870806119632998
3.06010425e+03,7.59999627,-5.10788926e-10,3.71441759,1.72309170,-3.84509847,7.50629130e-01,4.13624923e-05,6.00613552,-3.18912374,-1,-0.986500014881273
3.19024129e+03,7.59999621,-4.95695565e-10,3.71500352,1.71799221,-3.84509847,7.50629130e-01,4.13624923e-05,6.01204232,-3.16508753,-1,-0.9858939653764491
3.32577365e+03,7.59999614,-4.81242653e-10,3.71560082,1.71296083,-3.84509847,7.50629130e-01,4.13624924e-05,6.01802673,-3.14077640,-1,-0.985262789812093
3.46721915e+03,7.59999607,-4.66818396e-10,3.71618826,1.70800526,-3.84509847,7.50629130e-01,4.13624924e-05,6.02409835,-3.11613714,-1,-0.9846040766952543
3.61466729e+03,7.59999601,-4.53373522e-10,3.71680085,1.70313048,-3.84509847,7.50629130e-01,4.13624924e-05,6.03026261,-3.09116047,-1,-0.983917409223532
3.76845511e+03,7.59999594,-4.41337460e-10,3.71739488,1.69835557,-3.84509847,7.50629130e-01,4.13624924e-05,6.03652037,-3.06585427,-1,-0.9832012177982549
3.92872673e+03,7.59999587,-4.30124441e-10,3.71798958,1.69369523,-3.84509847,7.50629130e-01,4.13624924e-05,6.04286862,-3.04023308,-1,-0.9824548312511324
4.09609287e+03,7.59999580,-4.19093986e-10,3.71859064,1.68916254,-3.84509847,7.50629130e-01,4.13624924e-05,6.04932467,-3.01427218,-1,-0.9816754054529792
4.27042214e+03,7.59999573,-4.08648672e-10,3.71919090,1.68476294,-3.84509847,7.50629130e-01,4.13624925e-05,6.05588974,-2.98796732,-1,-0.9808635522883473
4.45245776e+03,7.59999565,-3.98876474e-10,3.71979083,1.68051941,-3.84509847,7.50629130e-01,4.13624925e-05,6.06257825,-2.96127586,-1,-0.9800158105742179
4.64220501e+03,7.59999558,-3.89746512e-10,3.72039327,1.67644647,-3.84509847,7.50629130e-01,4.13624925e-05,6.06938999,-2.93417621,-1,-0.979132155721578
4.84014873e+03,7.59999550,-3.81328589e-10,3.72099911,1.67256964,-3.84509847,7.50629130e-01,4.13624925e-05,6.07634353,-2.90670370,-1,-0.9782103298256684
5.04671585e+03,7.59999543,-3.73696407e-10,3.72160344,1.66891514,-3.84509847,7.50629130e-01,4.13624925e-05,6.08344732,-2.87881505,-1,-0.9772483446691833
5.26196121e+03,7.59999535,-3.66766758e-10,3.72221726,1.66550480,-3.84509847,7.50629130e-01,4.13624925e-05,6.09070658,-2.85048474,-1,-0.9762459448616907
5.48687641e+03,7.59999526,-3.60712801e-10,3.72283551,1.66238995,-3.84509847,7.50629130e-01,4.13624925e-05,6.09815068,-2.82171033,-1,-0.9751985125120124
5.72120982e+03,7.59999518,-3.55479245e-10,3.72345202,1.65959200,-3.84509847,7.50629130e-01,4.13624925e-05,6.10577874,-2.79248817,-1,-0.9741072194635904
5.96574005e+03,7.59999509,-3.51200626e-10,3.72408496,1.65717003,-3.84509847,7.50629131e-01,4.13624925e-05,6.11361578,-2.76277565,-1,-0.9729684397218198
6.22078057e+03,7.59999501,-3.47977661e-10,3.72471303,1.65518046,-3.84509847,7.50629131e-01,4.13624925e-05,6.12168074,-2.73255386,-1,-0.9717807134537562
6.48641474e+03,7.59999491,-3.45881125e-10,3.72534815,1.65367827,-3.84509847,7.50629131e-01,4.13624925e-05,6.12998677,-2.70183484,-1,-0.9705436524510407
6.76361380e+03,7.59999482,-3.45166551e-10,3.72599181,1.65277721,-3.84509847,7.50629131e-01,4.13624925e-05,6.13856844,-2.67058040,-1,-0.9692527336392199
7.05179554e+03,7.59999472,-3.45976372e-10,3.72664537,1.65253185,-3.84509847,7.50629131e-01,4.13624925e-05,6.14743000,-2.63882393,-1,-0.9679106683761226
7.35191526e+03,7.59999461,-3.48768963e-10,3.72731314,1.65310734,-3.84509847,7.50629131e-01,4.13624925e-05,6.15661690,-2.60653276,-1,-0.9665130078200357
7.66326737e+03,7.59999450,-3.53864556e-10,3.72799768,1.65459818,-3.84509847,7.50629131e-01,4.13624925e-05,6.16613529,-2.57378292,-1,-0.9650630379106894
7.98560348e+03,7.59999439,-3.61839536e-10,3.72870396,1.65716588,-3.84509847,7.50629131e-01,4.13624925e-05,6.17600965,-2.54060150,-1,-0.9635619154028132
8.31802212e+03,7.59999427,-3.73225601e-10,3.72944564,1.66094322,-3.84509847,7.50629131e-01,4.13624925e-05,6.18624282,-2.50710971,-1,-0.9620138384512685
8.65944040e+03,7.59999414,-3.88822811e-10,3.73023825,1.66604266,-3.84509847,7.50629131e-01,4.13624925e-05,6.19687375,-2.47345456,-1,-0.9604238500856821
9.00830128e+03,7.59999400,-4.09122538e-10,3.73110702,1.67242078,-3.84509847,7.50629131e-01,4.13624925e-05,6.20782660,-2.43995828,-1,-0.9587992014570023
9.36403585e+03,7.59999384,-4.34266398e-10,3.73208592,1.67982344,-3.84509847,7.50629131e-01,4.13624925e-05,6.21916332,-2.40656857,-1,-0.9571425419848238
9.72834147e+03,7.59999368,-4.63574219e-10,3.73322653,1.68768525,-3.84509847,7.50629131e-01,4.13624925e-05,6.23091093,-2.37333502,-1,-0.9554459670465466
1.01061774e+04,7.59999350,-4.94720324e-10,3.73457232,1.69509123,-3.84509847,7.50629131e-01,4.13624925e-05,6.24317981,-2.33982168,-1,-0.9536863813184464
1.05042395e+04,7.59999329,-5.24107620e-10,3.73618641,1.70093766,-3.84509847,7.50629131e-01,4.13624925e-05,6.25597898,-2.30562600,-1,-0.9518326021131241
1.09259237e+04,7.59999307,-5.48220412e-10,3.73810055,1.70450596,-3.84509847,7.50629131e-01,4.13624924e-05,6.26916586,-2.27039752,-1,-0.9498688145503973
1.13708580e+04,7.59999282,-5.65505707e-10,3.74033869,1.70565735,-3.84509847,7.50629131e-01,4.13624924e-05,6.28214276,-2.23419331,-1,-0.9477967510380092
1.18368403e+04,7.59999255,-5.76158586e-10,3.74290039,1.70464481,-3.84509847,7.50629132e-01,4.13624924e-05,6.29447701,-2.19707771,-1,-0.945626666777819
1.23211362e+04,7.59999227,-5.80964764e-10,3.74583707,1.70170746,-3.84509848,7.50629132e-01,4.13624924e-05,6.30648631,-2.15850624,-1,-0.9433712958981427
1.28207208e+04,7.59999198,-5.80839733e-10,3.74928509,1.69690475,-3.84509848,7.50629133e-01,4.13624923e-05,6.31838947,-2.11884009,-1,-0.9410447253887192
1.33309290e+04,7.59999169,-5.76297434e-10,3.75347352,1.69007076,-3.84509848,7.50629134e-01,4.13624921e-05,6.33035757,-2.07858158,-1,-0.9386686806671923
1.38503789e+04,7.59999139,-5.68978106e-10,3.75831576,1.68170215,-3.84509849,7.50629136e-01,4.13624919e-05,6.34249768,-2.03814224,-1,-0.9362495972557681
1.43770991e+04,7.59999109,-5.60383516e-10,3.76377135,1.67221285,-3.84509851,7.50629141e-01,4.13624913e-05,6.35478719,-1.99770395,-1,-0.9337966559840841
1.49059749e+04,7.59999080,-5.51407144e-10,3.76992203,1.66168580,-3.84509855,7.50629149e-01,4.13624904e-05,6.36715855,-1.95749724,-1,-0.9313336760615089
1.54316428e+04,7.59999051,-5.42725187e-10,3.77680723,1.65019413,-3.84509860,7.50629160e-01,4.13624891e-05,6.37945231,-1.91793231,-1,-0.928885635361514
1.59582645e+04,7.59999023,-5.35049076e-10,3.78415011,1.63838243,-3.84509867,7.50629174e-01,4.13624875e-05,6.39173720,-1.87878092,-1,-0.9264331528053213
1.64887136e+04,7.59998994,-5.28863631e-10,3.79179328,1.62654644,-3.84509875,7.50629191e-01,4.13624856e-05,6.40412463,-1.83980722,-1,-0.9239628460088143
1.70232994e+04,7.59998966,-5.23915835e-10,3.79968995,1.61469839,-3.84509899,7.50629257e-01,4.13624785e-05,6.41663180,-1.80090293,-1,-0.9214732745587804
1.75624499e+04,7.59998938,-5.19855486e-10,3.80780847,1.60276965,-3.84509993,7.50629504e-01,4.13624527e-05,6.42927106,-1.76197721,-1,-0.9189624452549128
1.81075881e+04,7.59998910,-5.16164593e-10,3.81611624,1.59065781,-3.84510203,7.50629862e-01,4.13624154e-05,6.44205867,-1.72302164,-1,-0.916423731171892
1.86596450e+04,7.59998882,-5.12379386e-10,3.82459229,1.57827950,-3.84510570,7.50630360e-01,4.13623635e-05,6.45500778,-1.68390240,-1,-0.9138527966333498
1.92200013e+04,7.59998853,-5.08176337e-10,3.83321398,1.56556008,-3.84511044,7.50630955e-01,4.13623015e-05,6.46812619,-1.64453270,-1,-0.9112432117054923
1.97902227e+04,7.59998824,-5.03221532e-10,3.84195930,1.55244265,-3.84511628,7.50631649e-01,4.13622294e-05,6.48143576,-1.60488523,-1,-0.9085876849076642
2.03717193e+04,7.59998795,-4.97343346e-10,3.85080919,1.53889477,-3.84512192,7.50632351e-01,4.13621564e-05,6.49492733,-1.56493841,-1,-0.9058796493899759
2.09653780e+04,7.59998766,-4.90475440e-10,3.85975070,1.52490606,-3.84512591,7.50632969e-01,4.13620924e-05,6.50860329,-1.52461340,-1,-0.9031149748502029
2.15728376e+04,7.59998736,-4.82542763e-10,3.86876309,1.51047415,-3.84512689,7.50633423e-01,4.13620456e-05,6.52247055,-1.48394406,-1,-0.9002860293802539
2.21949817e+04,7.59998707,-4.73607166e-10,3.87783376,1.49561680,-3.84512439,7.50633736e-01,4.13620133e-05,6.53650480,-1.44290107,-1,-0.8973886980460377
2.28330081e+04,7.59998677,-4.63734368e-10,3.88694845,1.48035997,-3.84512030,7.50634033e-01,4.13619825e-05,6.55070003,-1.40147343,-1,-0.894417402680901
2.34875628e+04,7.59998647,-4.53086615e-10,3.89609710,1.46474813,-3.84511450,7.50634301e-01,4.13619544e-05,6.56505291,-1.35964673,-1,-0.8913691348563431
2.41598004e+04,7.59998617,-4.41805324e-10,3.90526860,1.44882337,-3.84511783,7.50635067e-01,4.13618749e-05,6.57955201,-1.31747761,-1,-0.8882385175885457
2.48509684e+04,7.59998587,-4.30036509e-10,3.91445106,1.43262912,-3.84511741,7.50635820e-01,4.13617962e-05,6.59417518,-1.27498627,-1,-0.8850197412574552
2.55615503e+04,7.59998557,-4.17968009e-10,3.92363973,1.41621952,-3.84511935,7.50636703e-01,4.13617041e-05,6.60891361,-1.23215912,-1,-0.8817105541987065
2.62919773e+04,7.59998527,-4.05763903e-10,3.93283331,1.39965065,-3.84512070,7.50637592e-01,4.13616112e-05,6.62373745,-1.18901496,-1,-0.8783089483095603
