star_age,star_mass,star_mdot,log_Teff,log_R,log_surf_z,surface_h1,surface_he3,log_center_T,log_center_Rho,phase,x
1.40577943e+02,8.49998241e+01,-1.07464139e-06,4.22687938,2.08389006,-3.84509847,7.50629131e-01,4.13624918e-05,6.75481624,-2.29621625,-1,-1.0
1.44463338e+02,8.49998199e+01,-1.07338358e-06,4.22802280,2.08133677,-3.84509847,7.50629131e-01,4.13624918e-05,6.75649590,-2.29133014,-1,-0.9997779291092068
1.48348732e+02,8.49998158e+01,-1.07212577e-06,4.22916623,2.07878347,-3.84509847,7.50629131e-01,4.13624918e-05,6.75817555,-2.28644403,-1,-0.999555858275569
1.52234127e+02,8.49998116e+01,-1.07086796e-06,4.23030965,2.07623018,-3.84509847,7.50629131e-01,4.13624918e-05,6.75985521,-2.28155791,-1,-0.9993337873847759
1.56119521e+02,8.49998075e+01,-1.06961015e-06,4.23145307,2.07367689,-3.84509847,7.50629131e-01,4.13624918e-05,6.76153487,-2.27667180,-1,-0.9991117165511381
1.60198082e+02,8.49998031e+01,-1.06869621e-06,4.23262991,2.07106641,-3.84509847,7.50629131e-01,4.13624918e-05,6.76328526,-2.27158026,-1,-0.9988786052009602
1.64531624e+02,8.49997985e+01,-1.06823616e-06,4.23385087,2.06838044,-3.84509847,7.50629131e-01,4.13624918e-05,6.76512902,-2.26621753,-1,-0.9986309203369427
1.68865166e+02,8.49997939e+01,-1.06777612e-06,4.23507183,2.06569448,-3.84509847,7.50629131e-01,4.13624918e-05,6.76697278,-2.26085481,-1,-0.9983832354729251
1.73198707e+02,8.49997892e+01,-1.06731608e-06,4.23629279,2.06300852,-3.84509847,7.50629131e-01,4.13624918e-05,6.76881654,-2.25549208,-1,-0.9981355506660629
1.77757928e+02,8.49997844e+01,-1.06712177e-06,4.23755063,2.06026263,-3.84509847,7.50629131e-01,4.13624917e-05,6.77073776,-2.24990409,-1,-0.9978749670526097
1.82572590e+02,8.49997792e+01,-1.06722823e-06,4.23885023,2.05744890,-3.84509847,7.50629131e-01,4.13624917e-05,6.77274668,-2.24406112,-1,-0.9975997836338819
1.87387252e+02,8.49997741e+01,-1.06733469e-06,4.24014982,2.05463518,-3.84509847,7.50629131e-01,4.13624917e-05,6.77475559,-2.23821814,-1,-0.9973246002151541
1.92201914e+02,8.49997690e+01,-1.06744115e-06,4.24144942,2.05182146,-3.84509847,7.50629131e-01,4.13624917e-05,6.77676450,-2.23237517,-1,-0.9970494167964263
1.97125577e+02,8.49997637e+01,-1.06763937e-06,4.24276678,2.04897814,-3.84509847,7.50629131e-01,4.13624917e-05,6.77880933,-2.22642753,-1,-0.9967680033935741
2.02514505e+02,8.49997579e+01,-1.06822930e-06,4.24415998,2.04600847,-3.84509847,7.50629131e-01,4.13624917e-05,6.78100742,-2.22003317,-1,-0.9964599976331867
2.07903433e+02,8.49997522e+01,-1.06881923e-06,4.24555318,2.04303881,-3.84509847,7.50629131e-01,4.13624917e-05,6.78320552,-2.21363881,-1,-0.9961519918727995
2.13292361e+02,8.49997464e+01,-1.06940915e-06,4.24694639,2.04006914,-3.84509847,7.50629131e-01,4.13624917e-05,6.78540362,-2.20724445,-1,-0.9958439861124121
2.18681289e+02,8.49997406e+01,-1.06999908e-06,4.24833959,2.03709948,-3.84509847,7.50629131e-01,4.13624917e-05,6.78760172,-2.20085009,-1,-0.9955359803520247
2.24423247e+02,8.49997345e+01,-1.07117686e-06,4.24979182,2.03402478,-3.84509847,7.50629131e-01,4.13624917e-05,6.78991580,-2.19411727,-1,-0.9952077970584454
2.30398686e+02,8.49997280e+01,-1.07274342e-06,4.25128310,2.03088061,-3.84509847,7.50629131e-01,4.13624917e-05,6.79230659,-2.18716062,-1,-0.9948662690898322
2.36374126e+02,8.49997216e+01,-1.07430998e-06,4.25277438,2.02773644,-3.84509847,7.50629131e-01,4.13624917e-05,6.79469738,-2.18020396,-1,-0.9945247410640636
2.42349566e+02,8.49997152e+01,-1.07587654e-06,4.25426566,2.02459228,-3.84509847,7.50629131e-01,4.13624917e-05,6.79708817,-2.17324731,-1,-0.994183213038295
2.48846925e+02,8.49997081e+01,-1.07794280e-06,4.25583521,2.02131612,-3.84509847,7.50629131e-01,4.13624917e-05,6.79964206,-2.16581589,-1,-0.9938118545790051
2.55354054e+02,8.49997011e+01,-1.08001841e-06,4.25740622,2.01803749,-3.84509847,7.50629131e-01,4.13624917e-05,6.80219900,-2.15837559,-1,-0.9934399377124997
2.61861182e+02,8.49996941e+01,-1.08209402e-06,4.25897724,2.01475887,-3.84509847,7.50629132e-01,4.13624917e-05,6.80475595,-2.15093528,-1,-0.9930680209031496
2.68827407e+02,8.49996865e+01,-1.08420627e-06,4.26061348,2.01137649,-3.84509847,7.50629132e-01,4.13624917e-05,6.80744792,-2.14310136,-1,-0.9926698642701135
2.75901066e+02,8.49996788e+01,-1.08632710e-06,4.26226499,2.00796984,-3.84509847,7.50629132e-01,4.13624917e-05,6.81017150,-2.13517532,-1,-0.9922655672152975
2.82974725e+02,8.49996711e+01,-1.08844793e-06,4.26391650,2.00456318,-3.84509847,7.50629132e-01,4.13624917e-05,6.81289507,-2.12724928,-1,-0.9918612701604814
2.90257549e+02,8.49996631e+01,-1.09073647e-06,4.26559698,2.00110943,-3.84509847,7.50629132e-01,4.13624917e-05,6.81567702,-2.11915304,-1,-0.9914450182187433
2.98006729e+02,8.49996546e+01,-1.09339894e-06,4.26734204,1.99755068,-3.84509847,7.50629132e-01,4.13624917e-05,6.81858910,-2.11067733,-1,-0.9910021115630451
3.05755909e+02,8.49996460e+01,-1.09606141e-06,4.26908710,1.99399193,-3.84509847,7.50629132e-01,4.13624917e-05,6.82150119,-2.10220163,-1,-0.990559204907347
3.13505089e+02,8.49996375e+01,-1.09872388e-06,4.27083216,1.99043317,-3.84509848,7.50629132e-01,4.13624917e-05,6.82441327,-2.09372592,-1,-0.9901162982516488
3.21577594e+02,8.49996286e+01,-1.10225219e-06,4.27262427,1.98679206,-3.84509848,7.50629132e-01,4.13624917e-05,6.82741661,-2.08498372,-1,-0.989654911860746
3.30007508e+02,8.49996192e+01,-1.10673760e-06,4.27446839,1.98305990,-3.84509848,7.50629132e-01,4.13624917e-05,6.83052082,-2.07594693,-1,-0.9891730976536216
3.38437423e+02,8.49996098e+01,-1.11122302e-06,4.27631251,1.97932775,-3.84509848,7.50629132e-01,4.13624917e-05,6.83362503,-2.06691014,-1,-0.9886912833893421
3.47143127e+02,8.49996001e+01,-1.11583414e-06,4.27819280,1.97553579,-3.84509848,7.50629132e-01,4.13624916e-05,6.83680284,-2.05765934,-1,-0.9881937063238799
3.56178875e+02,8.49995899e+01,-1.12059568e-06,4.28011636,1.97167226,-3.84509848,7.50629132e-01,4.13624916e-05,6.84006871,-2.04815242,-1,-0.9876772654967974
3.65214623e+02,8.49995797e+01,-1.12535722e-06,4.28203993,1.96780873,-3.84509848,7.50629132e-01,4.13624916e-05,6.84333458,-2.03864551,-1,-0.9871608246697149
3.74715718e+02,8.49995689e+01,-1.13049459e-06,4.28402375,1.96384602,-3.84509848,7.50629132e-01,4.13624916e-05,6.84672160,-2.02878423,-1,-0.9866177867983632
3.84329594e+02,8.49995580e+01,-1.13572304e-06,4.28602217,1.95985927,-3.84509848,7.50629132e-01,4.13624916e-05,6.85013798,-2.01883708,-1,-0.9860683028958785
3.94165531e+02,8.49995467e+01,-1.14078834e-06,4.28804815,1.95582814,-3.84509848,7.50629132e-01,4.13624916e-05,6.85360663,-2.00873798,-1,-0.9855061270318093
4.04405309e+02,8.49995349e+01,-1.14555691e-06,4.29012426,1.95171630,-3.84509848,7.50629132e-01,4.13624916e-05,6.85717035,-1.99836254,-1,-0.9849208695169404
4.14645087e+02,8.49995231e+01,-1.15032549e-06,4.29220036,1.94760446,-3.84509848,7.50629132e-01,4.13624916e-05,6.86073406,-1.98798711,-1,-0.9843356120020715
4.25328179e+02,8.49995107e+01,-1.15547645e-06,4.29432925,1.94340384,-3.84509848,7.50629132e-01,4.13624916e-05,6.86439773,-1.97732045,-1,-0.9837250167455107
4.36313845e+02,8.49994978e+01,-1.16088842e-06,4.29649417,1.93914262,-3.84509848,7.50629133e-01,4.13624916e-05,6.86812961,-1.96645501,-1,-0.9830971277832364
4.47299511e+02,8.49994850e+01,-1.16630038e-06,4.29865910,1.93488140,-3.84509848,7.50629133e-01,4.13624916e-05,6.87186149,-1.95558956,-1,-0.982469238820962
4.58665946e+02,8.49994716e+01,-1.17325282e-06,4.30086975,1.93053693,-3.84509848,7.50629133e-01,4.13624916e-05,6.87568052,-1.94446955,-1,-0.981819586894815
4.70403049e+02,8.49994576e+01,-1.18170487e-06,4.30312491,1.92611142,-3.84509848,7.50629133e-01,4.13624916e-05,6.87958439,-1.93310171,-1,-0.9811487493304126
4.82156752e+02,8.49994436e+01,-1.19015391e-06,4.30538205,1.92168245,-3.84509848,7.50629133e-01,4.13624915e-05,6.88349192,-1.92172324,-1,-0.9804769629881417
4.94560321e+02,8.49994286e+01,-1.19848493e-06,4.30771618,1.91711783,-3.84509848,7.50629133e-01,4.13624915e-05,6.88754258,-1.90992832,-1,-0.9797680333640381
5.06963890e+02,8.49994137e+01,-1.20681595e-06,4.31005031,1.91255322,-3.84509848,7.50629133e-01,4.13624915e-05,6.89159325,-1.89813340,-1,-0.9790591037399344
5.19886664e+02,8.49993979e+01,-1.21537083e-06,4.31244491,1.90788001,-3.84509848,7.50629133e-01,4.13624915e-05,6.89575404,-1.88601617,-1,-0.9783204988017754
5.32924051e+02,8.49993819e+01,-1.22397513e-06,4.31485286,1.90318284,-3.84509848,7.50629133e-01,4.13624915e-05,6.89993914,-1.87382780,-1,-0.9775753431239859
5.46484447e+02,8.49993651e+01,-1.23177332e-06,4.31731722,1.89838317,-3.84509848,7.50629133e-01,4.13624915e-05,6.90422135,-1.86135708,-1,-0.9768002947134053
5.60208307e+02,8.49993480e+01,-1.23931958e-06,4.31979921,1.89355145,-3.84509848,7.50629133e-01,4.13624915e-05,6.90853391,-1.84879811,-1,-0.9760159034699615
5.74273137e+02,8.49993304e+01,-1.24710834e-06,4.32231597,1.88865246,-3.84509848,7.50629134e-01,4.13624915e-05,6.91290677,-1.83606322,-1,-0.9752120239861628
5.88815428e+02,8.49993120e+01,-1.25523667e-06,4.32488144,1.88365927,-3.84509848,7.50629134e-01,4.13624915e-05,6.91736406,-1.82308196,-1,-0.9743808550788721
6.03357718e+02,8.49992936e+01,-1.26336500e-06,4.32744690,1.87866607,-3.84509848,7.50629134e-01,4.13624914e-05,6.92182135,-1.81010071,-1,-0.9735496862287365
6.18525302e+02,8.49992741e+01,-1.27453972e-06,4.33007383,1.87354562,-3.84509848,7.50629134e-01,4.13624914e-05,6.92639243,-1.79678600,-1,-0.9726827785166353
6.33889604e+02,8.49992542e+01,-1.28667283e-06,4.33272011,1.86838512,-3.84509848,7.50629134e-01,4.13624914e-05,6.93099931,-1.78336638,-1,-0.9718046273295475
6.49701187e+02,8.49992336e+01,-1.29833647e-06,4.33541217,1.86313331,-3.84509848,7.50629134e-01,4.13624914e-05,6.93568429,-1.76971780,-1,-0.9709009116657193
6.65786312e+02,8.49992125e+01,-1.30971301e-06,4.33813223,1.85782565,-3.84509848,7.50629134e-01,4.13624914e-05,6.94041704,-1.75592921,-1,-0.9699815616286526
6.82358416e+02,8.49991905e+01,-1.32104330e-06,4.34089887,1.85242177,-3.84509848,7.50629134e-01,4.13624914e-05,6.94522950,-1.74190791,-1,-0.9690343781640122
6.99128313e+02,8.49991681e+01,-1.33235482e-06,4.34368443,1.84697881,-3.84509848,7.50629135e-01,4.13624914e-05,6.95007435,-1.72779210,-1,-0.968075889782445
7.16580537e+02,8.49991445e+01,-1.34202579e-06,4.34653190,1.84140600,-3.84509848,7.50629135e-01,4.13624913e-05,6.95501816,-1.71338801,-1,-0.9670784028010695
7.34090136e+02,8.49991208e+01,-1.35155880e-06,4.34938458,1.83582228,-3.84509848,7.50629135e-01,4.13624913e-05,6.95997029,-1.69895967,-1,-0.9660776365347412
7.52369420e+02,8.49990957e+01,-1.36144201e-06,4.35229781,1.83010194,-3.84509848,7.50629135e-01,4.13624913e-05,6.96502443,-1.68423178,-1,-0.9650328786964929
7.70767134e+02,8.49990704e+01,-1.37137909e-06,4.35522035,1.82436058,-3.84509848,7.50629135e-01,4.13624913e-05,6.97009427,-1.66945780,-1,-0.9639813519568596
7.89628264e+02,8.49990578e+01,-1.01253126e-06,4.35817647,1.81853996,-3.84509848,7.50629135e-01,4.13624913e-05,6.97522936,-1.65449115,-1,-0.9629033385398287
8.08919233e+02,8.49990569e+01,-3.11618864e-07,4.36116375,1.81264581,-3.84509848,7.50629136e-01,4.13624912e-05,6.98042499,-1.63934578,-1,-0.9618007575486829
8.28693027e+02,8.49990560e+01,-4.62436180e-08,4.36418898,1.80666705,-3.84509848,7.50629136e-01,4.13624912e-05,6.98568563,-1.62400926,-1,-0.9606705805530518
8.48763540e+02,8.49990550e+01,-4.85266101e-08,4.36723752,1.80063628,-3.84509848,7.50629136e-01,4.13624912e-05,6.99098623,-1.60855527,-1,-0.9595234444959494
8.69514125e+02,8.49990539e+01,-5.08679025e-08,4.37033513,1.79449319,-3.84509848,7.50629136e-01,4.13624912e-05,6.99637108,-1.59285466,-1,-0.9583374387242252
8.90578002e+02,8.49990528e+01,-5.31212249e-08,4.37345409,1.78830111,-3.84509848,7.50629136e-01,4.13624911e-05,7.00179052,-1.57705221,-1,-0.9571335266563538
9.12194561e+02,8.49990516e+01,-5.51693726e-08,4.37661017,1.78202379,-3.84509848,7.50629137e-01,4.13624911e-05,7.00726918,-1.56107520,-1,-0.9558980258866734
9.34257307e+02,8.49990503e+01,-5.72922862e-08,4.37979053,1.77568648,-3.84509848,7.50629137e-01,4.13624911e-05,7.01279220,-1.54496638,-1,-0.9546370231681434
9.56844940e+02,8.49990489e+01,-5.95031532e-08,4.38299946,1.76927859,-3.84509848,7.50629137e-01,4.13624911e-05,7.01836742,-1.52870249,-1,-0.9533460203791815
9.79759533e+02,8.49990475e+01,-6.20939014e-08,4.38622279,1.76283151,-3.84509848,7.50629137e-01,4.13624911e-05,7.02397678,-1.51233671,-1,-0.9520363300955238
1.00333382e+03,8.49990459e+01,-6.54511192e-08,4.38947517,1.75630536,-3.84509848,7.50629138e-01,4.13624910e-05,7.02965501,-1.49576534,-1,-0.9506889348078109
1.02741826e+03,8.49990442e+01,-6.87312190e-08,4.39275746,1.74971178,-3.84509848,7.50629138e-01,4.13624910e-05,7.03538772,-1.47903354,-1,-0.9493123815757576
1.05187353e+03,8.49990425e+01,-7.19609515e-08,4.39606118,1.74306971,-3.84509848,7.50629138e-01,4.13624910e-05,7.04115952,-1.46218654,-1,-0.9479146334462916
1.07712319e+03,8.49990405e+01,-7.52290288e-08,4.39940254,1.73633736,-3.84509848,7.50629138e-01,4.13624910e-05,7.04700198,-1.44512872,-1,-0.9464714817233847
1.10286476e+03,8.49990385e+01,-7.82444161e-08,4.40276732,1.72955218,-3.84509849,7.50629139e-01,4.13624909e-05,7.05288436,-1.42795079,-1,-0.9450002147401528
1.12900298e+03,8.49990363e+01,-8.10560567e-08,4.40615099,1.72272440,-3.84509849,7.50629139e-01,4.13624909e-05,7.05879893,-1.41067600,-1,-0.9435062771098355
1.15605131e+03,8.49990340e+01,-8.40169391e-08,4.40956340,1.71582297,-3.84509849,7.50629139e-01,4.13624909e-05,7.06477606,-1.39321336,-1,-0.9419603218755371
1.18327718e+03,8.49990316e+01,-8.70069348e-08,4.41298141,1.70890719,-3.84509849,7.50629140e-01,4.13624909e-05,7.07076539,-1.37571407,-1,-0.940404219290467
1.21145317e+03,8.49990290e+01,-9.12398111e-08,4.41642297,1.70192147,-3.84509849,7.50629140e-01,4.13624910e-05,7.07683255,-1.35797994,-1,-0.9387938123181313
1.24001154e+03,8.49990262e+01,-9.56195618e-08,4.41987738,1.69490491,-3.84509849,7.50629140e-01,4.13624910e-05,7.08293031,-1.34015370,-1,-0.9371615503047452
1.26929939e+03,8.49990233e+01,-9.98142841e-08,4.42336081,1.68782596,-3.84509849,7.50629141e-01,4.13624911e-05,7.08908550,-1.32215488,-1,-0.9354875946480061
1.29929313e+03,8.49990201e+01,-1.04006018e-07,4.42686733,1.68069503,-3.84509849,7.50629141e-01,4.13624912e-05,7.09529085,-1.30400597,-1,-0.9337732936412828
1.32986849e+03,8.49990168e+01,-1.07973256e-07,4.43039262,1.67352448,-3.84509849,7.50629142e-01,4.13624914e-05,7.10153294,-1.28574633,-1,-0.932025749972873
1.36108323e+03,8.49990133e+01,-1.11547587e-07,4.43393835,1.66631247,-3.84509849,7.50629142e-01,4.13624916e-05,7.10781236,-1.26737345,-1,-0.9302416623530362
1.39320055e+03,8.49990095e+01,-1.15254236e-07,4.43750202,1.65905903,-3.84509849,7.50629143e-01,4.13624920e-05,7.11413940,-1.24885541,-1,-0.9284059875085768
1.42564355e+03,8.49990056e+01,-1.19008632e-07,4.44107215,1.65179064,-3.84509849,7.50629143e-01,4.13624926e-05,7.12048363,-1.23028500,-1,-0.926551698328197
1.45916467e+03,8.49990014e+01,-1.24239219e-07,4.44465500,1.64447943,-3.84509849,7.50629143e-01,4.13624934e-05,7.12689716,-1.21150283,-1,-0.9246357888830097
1.49319868e+03,8.49989969e+01,-1.29604952e-07,4.44824961,1.63714265,-3.84509849,7.50629144e-01,4.13624944e-05,7.13334262,-1.19262396,-1,-0.922690565059444
1.52798272e+03,8.49989922e+01,-1.34711261e-07,4.45186602,1.62976431,-3.84509849,7.50629144e-01,4.13624958e-05,7.13983389,-1.17360692,-1,-0.9207024730512482
1.56370393e+03,8.49989872e+01,-1.39767526e-07,4.45550405,1.62234269,-3.84509849,7.50629145e-01,4.13624979e-05,7.14637681,-1.15443226,-1,-0.9186608168168348
1.60015615e+03,8.49989819e+01,-1.44393359e-07,4.45915967,1.61489051,-3.84509849,7.50629146e-01,4.13625009e-05,7.15295316,-1.13515638,-1,-0.9165773794914696
1.63712581e+03,8.49989764e+01,-1.48664620e-07,4.46282782,1.60741710,-3.84509850,7.50629146e-01,4.13625045e-05,7.15955231,-1.11581160,-1,-0.9144643677311416
1.67546084e+03,8.49989704e+01,-1.53103325e-07,4.46651356,1.59990877,-3.84509850,7.50629147e-01,4.13625113e-05,7.16620614,-1.09629715,-1,-0.912273317848007
1.71406372e+03,8.49989643e+01,-1.57862833e-07,4.47020079,1.59239466,-3.84509850,7.50629147e-01,4.13625189e-05,7.17287320,-1.07674207,-1,-0.9100669589195632
1.75387719e+03,8.49989576e+01,-1.64257641e-07,4.47389351,1.58485519,-3.84509850,7.50629148e-01,4.13625301e-05,7.17960169,-1.05699870,-1,-0.9077914083646091
1.79450247e+03,8.49989507e+01,-1.70306247e-07,4.47760510,1.57728359,-3.84509850,7.50629149e-01,4.13625455e-05,7.18636911,-1.03713606,-1,-0.905469458571005
1.83588983e+03,8.49989433e+01,-1.76143308e-07,4.48133248,1.56968452,-3.84509850,7.50629149e-01,4.13625657e-05,7.19317153,-1.01716696,-1,-0.9031039518714863
1.87812147e+03,8.49989357e+01,-1.81894848e-07,4.48507481,1.56205852,-3.84509850,7.50629150e-01,4.13625924e-05,7.20001070,-9.97087127e-01,-1,-0.9006901901009443
1.92161826e+03,8.49989274e+01,-1.86730785e-07,4.48884248,1.55439517,-3.84509850,7.50629151e-01,4.13626359e-05,7.20689202,-9.76876996e-01,-1,-0.8982041183110897
1.96586425e+03,8.49989189e+01,-1.91612493e-07,4.49261729,1.54671926,-3.84509850,7.50629151e-01,4.13626959e-05,7.21379597,-9.56595708e-01,-1,-0.8956752257754983
2.01098044e+03,8.49989099e+01,-1.96570119e-07,4.49640008,1.53902913,-3.84509850,7.50629152e-01,4.13627753e-05,7.22072611,-9.36232005e-01,-1,-0.8930965967036812
2.05723957e+03,8.49989004e+01,-2.02960958e-07,4.50018260,1.53132695,-3.84509850,7.50629153e-01,4.13628880e-05,7.22770267,-9.15723628e-01,-1,-0.8904526425609453
2.10433184e+03,8.49988905e+01,-2.09850319e-07,4.50397100,1.52360978,-3.84509851,7.50629154e-01,4.13630308e-05,7.23471227,-8.95113433e-01,-1,-0.8877610700571533
2.15250260e+03,8.49988801e+01,-2.16209072e-07,4.50778006,1.51585987,-3.84509851,7.50629154e-01,4.13632255e-05,7.24176295,-8.74379283e-01,-1,-0.8850078561410952
2.20187852e+03,8.49988690e+01,-2.22388131e-07,4.51160592,1.50808127,-3.84509851,7.50629155e-01,4.13635043e-05,7.24885419,-8.53517239e-01,-1,-0.8821857609517694
2.25229280e+03,8.49988574e+01,-2.27903201e-07,4.51544921,1.50027789,-3.84509851,7.50629156e-01,4.13638980e-05,7.25597323,-8.32570379e-01,-1,-0.8793043179920974
2.30348699e+03,8.49988455e+01,-2.33009742e-07,4.51930376,1.49245851,-3.84509851,7.50629157e-01,4.13643974e-05,7.26311163,-8.11564328e-01,-1,-0.8763782990476314
2.35630246e+03,8.49988327e+01,-2.38195101e-07,4.52316855,1.48462133,-3.84509851,7.50629157e-01,4.13651993e-05,7.27028673,-7.90442341e-01,-1,-0.8733596153692518
2.40984690e+03,8.49988196e+01,-2.44163729e-07,4.52703087,1.47678099,-3.84509851,7.50629158e-01,4.13661714e-05,7.27748536,-7.69245610e-01,-1,-0.8702992671967185
2.46457978e+03,8.49988058e+01,-2.51409300e-07,4.53088918,1.46893550,-3.84509851,7.50629159e-01,4.13674207e-05,7.28472233,-7.47927027e-01,-1,-0.8671709933874214
2.52081009e+03,8.49987912e+01,-2.57857797e-07,4.53477183,1.46105309,-3.84509852,7.50629159e-01,4.13692293e-05,7.29200420,-7.26471722e-01,-1,-0.8639571335272851
2.57810710e+03,8.49987760e+01,-2.64077668e-07,4.53866697,1.45315014,-3.84509852,7.50629160e-01,4.13715825e-05,7.29931494,-7.04927675e-01,-1,-0.8606823061157907
2.63659436e+03,8.49987602e+01,-2.69766793e-07,4.54257794,1.44522405,-3.84509852,7.50629160e-01,4.13747565e-05,7.30665277,-6.83299177e-01,-1,-0.8573394496164515
2.69611330e+03,8.49987438e+01,-2.74755973e-07,4.54650450,1.43727731,-3.84509852,7.50629159e-01,4.13787976e-05,7.31401032,-6.61608213e-01,-1,-0.8539376271441255
2.75752973e+03,8.49987264e+01,-2.79757300e-07,4.55043919,1.42931629,-3.84509852,7.50629158e-01,4.13851940e-05,7.32139706,-6.39802629e-01,-1,-0.8504273530743244
2.81959554e+03,8.49987087e+01,-2.85145934e-07,4.55437199,1.42135414,-3.84509852,7.50629157e-01,4.13924984e-05,7.32879742,-6.17941516e-01,-1,-0.8468799635001634
2.88341247e+03,8.49986900e+01,-2.91996924e-07,4.55829457,1.41339307,-3.84509852,7.50629155e-01,4.14023627e-05,7.33623851,-5.95912882e-01,-1,-0.8432324881488069
2.94866509e+03,8.49986704e+01,-2.98079013e-07,4.56223673,1.40540395,-3.84509853,7.50629152e-01,4.14154610e-05,7.34371174,-5.73749659e-01,-1,-0.8395029555144193
3.01517611e+03,8.49986502e+01,-3.03782424e-07,4.56619158,1.39739539,-3.84509853,7.50629148e-01,4.14320439e-05,7.35121125,-5.51482832e-01,-1,-0.835701498658949
