star_age,star_mass,star_mdot,log_Teff,log_R,log_surf_z,surface_h1,surface_he3,log_center_T,log_center_Rho,phase,x
3.87024407e+02,2.24999136e+02,-2.19595061e-06,4.63714917,1.56724834,-3.84509851,7.50629160e-01,4.13648541e-05,7.41151973,-6.91923946e-01,-1,-1.0
3.93230812e+02,2.24999122e+02,-2.19693685e-06,4.63763453,1.56629312,-3.84509851,7.50629160e-01,4.13651398e-05,7.41246189,-6.89094789e-01,-1,-0.9990256788537831
3.99437216e+02,2.24999108e+02,-2.19792308e-06,4.63811989,1.56533791,-3.84509851,7.50629160e-01,4.13654256e-05,7.41340405,-6.86265631e-01,-1,-0.9980513578645527
4.05643620e+02,2.24999094e+02,-2.19890932e-06,4.63860526,1.56438269,-3.84509851,7.50629160e-01,4.13657114e-05,7.41434621,-6.83436474e-01,-1,-0.9970770368753222
4.11850025e+02,2.24999081e+02,-2.19989556e-06,4.63909062,1.56342747,-3.84509851,7.50629160e-01,4.13659971e-05,7.41528837,-6.80607316e-01,-1,-0.9961027157291054
4.18056429e+02,2.24999067e+02,-2.20088180e-06,4.63957598,1.56247225,-3.84509852,7.50629160e-01,4.13662829e-05,7.41623053,-6.77778159e-01,-1,-0.9951283947398749
4.24262833e+02,2.24999053e+02,-2.20186804e-06,4.64006135,1.56151703,-3.84509852,7.50629161e-01,4.13665687e-05,7.41717269,-6.74949001e-01,-1,-0.9941540737506445
4.30469238e+02,2.24999040e+02,-2.20285428e-06,4.64054671,1.56056181,-3.84509852,7.50629161e-01,4.13668544e-05,7.41811485,-6.72119844e-01,-1,-0.9931797526044276
4.36675642e+02,2.24999026e+02,-2.20384052e-06,4.64103207,1.55960660,-3.84509852,7.50629161e-01,4.13671402e-05,7.41905701,-6.69290686e-01,-1,-0.9922054316151971
4.42882046e+02,2.24999012e+02,-2.20482676e-06,4.64151744,1.55865138,-3.84509852,7.50629161e-01,4.13674260e-05,7.41999917,-6.66461529e-01,-1,-0.9912311106259666
4.49088450e+02,2.24998999e+02,-2.20581300e-06,4.64200280,1.55769616,-3.84509852,7.50629161e-01,4.13677117e-05,7.42094133,-6.63632371e-01,-1,-0.9902567896367361
4.55294855e+02,2.24998985e+02,-2.20679924e-06,4.64248817,1.55674094,-3.84509852,7.50629161e-01,4.13679975e-05,7.42188349,-6.60803214e-01,-1,-0.9892824684905193
4.61501259e+02,2.24998971e+02,-2.20778548e-06,4.64297353,1.55578572,-3.84509852,7.50629161e-01,4.13682833e-05,7.42282565,-6.57974056e-01,-1,-0.9883081475012888
4.68271242e+02,2.24998956e+02,-2.20887219e-06,4.64349404,1.55475984,-3.84509852,7.50629162e-01,4.13687232e-05,7.42383804,-6.54933755e-01,-1,-0.987245352276609
4.75544581e+02,2.24998940e+02,-2.21004863e-06,4.64404594,1.55367085,-3.84509852,7.50629162e-01,4.13693007e-05,7.42491315,-6.51704873e-01,-1,-0.9861035370081398
4.82817919e+02,2.24998924e+02,-2.21122508e-06,4.64459783,1.55258186,-3.84509852,7.50629162e-01,4.13698783e-05,7.42598826,-6.48475991e-01,-1,-0.984961721896657
4.90091257e+02,2.24998908e+02,-2.21240152e-06,4.64514973,1.55149287,-3.84509852,7.50629162e-01,4.13704558e-05,7.42706336,-6.45247110e-01,-1,-0.9838199067851742
4.97364596e+02,2.24998892e+02,-2.21357797e-06,4.64570163,1.55040387,-3.84509852,7.50629162e-01,4.13710334e-05,7.42813847,-6.42018228e-01,-1,-0.9826780915167049
5.04637934e+02,2.24998875e+02,-2.21475441e-06,4.64625353,1.54931488,-3.84509852,7.50629162e-01,4.13716109e-05,7.42921358,-6.38789346e-01,-1,-0.9815362764052221
5.11911272e+02,2.24998859e+02,-2.21593086e-06,4.64680543,1.54822589,-3.84509852,7.50629162e-01,4.13721885e-05,7.43028869,-6.35560464e-01,-1,-0.9803944612937393
5.19184611e+02,2.24998843e+02,-2.21710730e-06,4.64735733,1.54713690,-3.84509852,7.50629162e-01,4.13727660e-05,7.43136380,-6.32331582e-01,-1,-0.9792526460252701
5.26457949e+02,2.24998827e+02,-2.21828375e-06,4.64790923,1.54604790,-3.84509852,7.50629162e-01,4.13733436e-05,7.43243891,-6.29102701e-01,-1,-0.9781108309137871
5.33731287e+02,2.24998811e+02,-2.21946019e-06,4.64846112,1.54495891,-3.84509852,7.50629163e-01,4.13739211e-05,7.43351402,-6.25873819e-01,-1,-0.9769690158023043
5.41911045e+02,2.24998793e+02,-2.22024574e-06,4.64906972,1.54375711,-3.84509852,7.50629163e-01,4.13749143e-05,7.43469903,-6.22315464e-01,-1,-0.9756849050827595
5.50170008e+02,2.24998774e+02,-2.22099713e-06,4.64968326,1.54254544,-3.84509852,7.50629163e-01,4.13759437e-05,7.43589364,-6.18728319e-01,-1,-0.974388360255807
5.58428971e+02,2.24998756e+02,-2.22174851e-06,4.65029681,1.54133378,-3.84509852,7.50629163e-01,4.13769732e-05,7.43708825,-6.15141174e-01,-1,-0.9730918154288544
5.66687934e+02,2.24998737e+02,-2.22249990e-06,4.65091035,1.54012211,-3.84509852,7.50629163e-01,4.13780027e-05,7.43828286,-6.11554030e-01,-1,-0.9717952706019017
5.74946897e+02,2.24998719e+02,-2.22325128e-06,4.65152390,1.53891045,-3.84509852,7.50629163e-01,4.13790322e-05,7.43947747,-6.07966885e-01,-1,-0.9704987257749492
5.83205860e+02,2.24998701e+02,-2.22400267e-06,4.65213744,1.53769878,-3.84509852,7.50629162e-01,4.13800616e-05,7.44067208,-6.04379740e-01,-1,-0.9692021809479966
5.91464823e+02,2.24998682e+02,-2.22475406e-06,4.65275099,1.53648712,-3.84509852,7.50629162e-01,4.13810911e-05,7.44186669,-6.00792595e-01,-1,-0.9679056361210441
5.99723786e+02,2.24998664e+02,-2.22550544e-06,4.65336453,1.53527545,-3.84509852,7.50629162e-01,4.13821206e-05,7.44306130,-5.97205450e-01,-1,-0.9666090912940914
6.08716023e+02,2.24998644e+02,-2.22598506e-06,4.65402125,1.53397735,-3.84509852,7.50629162e-01,4.13836720e-05,7.44434000,-5.93365608e-01,-1,-0.9651974324254077
6.17933882e+02,2.24998623e+02,-2.22638105e-06,4.65469126,1.53265266,-3.84509853,7.50629162e-01,4.13853840e-05,7.44564458,-5.89448014e-01,-1,-0.9637503539723346
6.27151741e+02,2.24998603e+02,-2.22677705e-06,4.65536126,1.53132796,-3.84509853,7.50629162e-01,4.13870960e-05,7.44694916,-5.85530420e-01,-1,-0.9623032755192614
6.36369600e+02,2.24998582e+02,-2.22717304e-06,4.65603127,1.53000326,-3.84509853,7.50629162e-01,4.13888080e-05,7.44825373,-5.81612825e-01,-1,-0.9608561970661882
6.45587459e+02,2.24998562e+02,-2.22756904e-06,4.65670127,1.52867857,-3.84509853,7.50629161e-01,4.13905200e-05,7.44955831,-5.77695231e-01,-1,-0.9594091186131151
6.54805318e+02,2.24998541e+02,-2.22796503e-06,4.65737127,1.52735387,-3.84509853,7.50629161e-01,4.13922320e-05,7.45086289,-5.73777637e-01,-1,-0.9579620401600419
6.64023177e+02,2.24998521e+02,-2.22836103e-06,4.65804128,1.52602917,-3.84509853,7.50629161e-01,4.13939440e-05,7.45216747,-5.69860042e-01,-1,-0.9565149617069688
6.73761293e+02,2.24998499e+02,-2.22855987e-06,4.65874091,1.52464565,-3.84509853,7.50629161e-01,4.13962725e-05,7.45352834,-5.65773629e-01,-1,-0.9549862099830461
6.84021348e+02,2.24998476e+02,-2.22856092e-06,4.65947027,1.52320312,-3.84509853,7.50629160e-01,4.13992196e-05,7.45494570,-5.61517850e-01,-1,-0.9533755209371575
6.94281403e+02,2.24998453e+02,-2.22856197e-06,4.66019963,1.52176058,-3.84509853,7.50629159e-01,4.14021666e-05,7.45636306,-5.57262072e-01,-1,-0.9517648318912689
7.04541458e+02,2.24998430e+02,-2.22856302e-06,4.66092898,1.52031805,-3.84509853,7.50629159e-01,4.14051136e-05,7.45778041,-5.53006293e-01,-1,-0.9501541428453804
7.14801513e+02,2.24998408e+02,-2.22856407e-06,4.66165834,1.51887551,-3.84509853,7.50629158e-01,4.14080606e-05,7.45919777,-5.48750515e-01,-1,-0.9485434537994918
7.25061568e+02,2.24998385e+02,-2.22856512e-06,4.66238770,1.51743298,-3.84509853,7.50629158e-01,4.14110076e-05,7.46061513,-5.44494736e-01,-1,-0.9469327647536032
7.35321623e+02,2.24998362e+02,-2.22856617e-06,4.66311705,1.51599045,-3.84509853,7.50629157e-01,4.14139546e-05,7.46203248,-5.40238957e-01,-1,-0.9453220757077146
7.45581678e+02,2.24998339e+02,-2.22856722e-06,4.66384641,1.51454791,-3.84509853,7.50629156e-01,4.14169016e-05,7.46344984,-5.35983179e-01,-1,-0.9437113866618261
7.56670948e+02,2.24998314e+02,-2.22831685e-06,4.66461762,1.51302103,-3.84509853,7.50629155e-01,4.14214415e-05,7.46494922,-5.31481184e-01,-1,-0.9419705221424935
7.68175704e+02,2.24998289e+02,-2.22794049e-06,4.66540980,1.51145189,-3.84509853,7.50629154e-01,4.14267794e-05,7.46648969,-5.26855820e-01,-1,-0.9401644319738911
7.79680460e+02,2.24998263e+02,-2.22756414e-06,4.66620198,1.50988275,-3.84509853,7.50629152e-01,4.14321174e-05,7.46803017,-5.22230456e-01,-1,-0.9383583418052885
7.91185216e+02,2.24998237e+02,-2.22718779e-06,4.66699417,1.50831361,-3.84509853,7.50629151e-01,4.14374553e-05,7.46957064,-5.17605092e-01,-1,-0.9365522516366861
8.02689972e+02,2.24998212e+02,-2.22681144e-06,4.66778635,1.50674446,-3.84509853,7.50629150e-01,4.14427933e-05,7.47111112,-5.12979728e-01,-1,-0.9347461614680836
8.14194728e+02,2.24998186e+02,-2.22643509e-06,4.66857853,1.50517532,-3.84509853,7.50629148e-01,4.14481313e-05,7.47265159,-5.08354364e-01,-1,-0.9329400712994811
8.25699484e+02,2.24998161e+02,-2.22605874e-06,4.66937071,1.50360618,-3.84509853,7.50629147e-01,4.14534692e-05,7.47419207,-5.03729000e-01,-1,-0.9311339811308786
8.37204240e+02,2.24998135e+02,-2.22568239e-06,4.67016289,1.50203704,-3.84509853,7.50629146e-01,4.14588072e-05,7.47573254,-4.99103636e-01,-1,-0.9293278909622762
8.49067868e+02,2.24998109e+02,-2.22504755e-06,4.67097068,1.50043541,-3.84509854,7.50629144e-01,4.14650477e-05,7.47730622,-4.94377964e-01,-1,-0.9274654627721645
8.61838295e+02,2.24998080e+02,-2.22375959e-06,4.67181790,1.49875168,-3.84509854,7.50629142e-01,4.14735687e-05,7.47896378,-4.89398835e-01,-1,-0.9254606794761471
8.74608721e+02,2.24998052e+02,-2.22247163e-06,4.67266511,1.49706796,-3.84509854,7.50629139e-01,4.14820898e-05,7.48062135,-4.84419706e-01,-1,-0.9234558963371161
8.87379148e+02,2.24998024e+02,-2.22118366e-06,4.67351233,1.49538423,-3.84509854,7.50629137e-01,4.14906108e-05,7.48227891,-4.79440578e-01,-1,-0.9214511130410987
9.00149575e+02,2.24997995e+02,-2.21989570e-06,4.67435955,1.49370050,-3.84509854,7.50629134e-01,4.14991318e-05,7.48393648,-4.74461449e-01,-1,-0.9194463297450813
9.12920001e+02,2.24997967e+02,-2.21860773e-06,4.67520676,1.49201678,-3.84509854,7.50629132e-01,4.15076529e-05,7.48559404,-4.69482320e-01,-1,-0.9174415466060504
9.25690428e+02,2.24997939e+02,-2.21731977e-06,4.67605398,1.49033305,-3.84509854,7.50629130e-01,4.15161739e-05,7.48725160,-4.64503191e-01,-1,-0.915436763310033
9.39341272e+02,2.24997909e+02,-2.21544993e-06,4.67694261,1.48856709,-3.84509854,7.50629126e-01,4.15278390e-05,7.48898937,-4.59283719e-01,-1,-0.9132937665231802
9.53236921e+02,2.24997878e+02,-2.21341829e-06,4.67784276,1.48677825,-3.84509854,7.50629123e-01,4.15403784e-05,7.49074943,-4.53997419e-01,-1,-0.9111123386819246
9.67132570e+02,2.24997847e+02,-2.21138665e-06,4.67874291,1.48498942,-3.84509854,7.50629119e-01,4.15529177e-05,7.49250949,-4.48711118e-01,-1,-0.9089309108406691
9.81028219e+02,2.24997817e+02,-2.20935501e-06,4.67964306,1.48320059,-3.84509854,7.50629115e-01,4.15654570e-05,7.49426955,-4.43424817e-01,-1,-0.9067494829994137
9.94923868e+02,2.24997786e+02,-2.20732337e-06,4.68054321,1.48141175,-3.84509854,7.50629112e-01,4.15779963e-05,7.49602961,-4.38138517e-01,-1,-0.9045680551581583
1.00897347e+03,2.24997755e+02,-2.20521267e-06,4.68144984,1.47960993,-3.84509854,7.50629108e-01,4.15912744e-05,7.49780242,-4.32813897e-01,-1,-0.9023624587904493
1.02394967e+03,2.24997722e+02,-2.20262612e-06,4.68239544,1.47772994,-3.84509854,7.50629103e-01,4.16089985e-05,7.49965195,-4.27258642e-01,-1,-0.9000113991432022
1.03892586e+03,2.24997689e+02,-2.20003958e-06,4.68334105,1.47584994,-3.84509854,7.50629097e-01,4.16267226e-05,7.50150149,-4.21703388e-01,-1,-0.8976603410658189
1.05390206e+03,2.24997657e+02,-2.19745303e-06,4.68428665,1.47396995,-3.84509854,7.50629092e-01,4.16444467e-05,7.50335102,-4.16148134e-01,-1,-0.8953092814185718
1.06887825e+03,2.24997624e+02,-2.19486648e-06,4.68523225,1.47208996,-3.84509854,7.50629086e-01,4.16621708e-05,7.50520056,-4.10592880e-01,-1,-0.8929582233411886
1.08385445e+03,2.24997591e+02,-2.19227993e-06,4.68617786,1.47020996,-3.84509855,7.50629081e-01,4.16798949e-05,7.50705010,-4.05037626e-01,-1,-0.8906071636939414
1.09997913e+03,2.24997556e+02,-2.18960908e-06,4.68716905,1.46824026,-3.84509855,7.50629073e-01,4.17055691e-05,7.50898494,-3.99226658e-01,-1,-0.8880758083118837
1.11612721e+03,2.24997521e+02,-2.18693651e-06,4.68816117,1.46626873,-3.84509855,7.50629065e-01,4.17314053e-05,7.51092152,-3.93410481e-01,-1,-0.8855407794481853
1.13227528e+03,2.24997486e+02,-2.18426394e-06,4.68915329,1.46429720,-3.84509855,7.50629057e-01,4.17572415e-05,7.51285810,-3.87594303e-01,-1,-0.8830057521543511
1.14842336e+03,2.24997450e+02,-2.18159137e-06,4.69014542,1.46232567,-3.84509855,7.50629049e-01,4.17830778e-05,7.51479468,-3.81778126e-01,-1,-0.8804707232906527
1.16457144e+03,2.24997415e+02,-2.17891879e-06,4.69113754,1.46035414,-3.84509855,7.50629041e-01,4.18089140e-05,7.51673126,-3.75961949e-01,-1,-0.8779356944269544
1.18104979e+03,2.24997379e+02,-2.17611296e-06,4.69213987,1.45836181,-3.84509855,7.50629032e-01,4.18378709e-05,7.51868830,-3.70084329e-01,-1,-0.8753488176666137
1.19860520e+03,2.24997342e+02,-2.17287255e-06,4.69317548,1.45630165,-3.84509855,7.50629020e-01,4.18770050e-05,7.52071207,-3.64006335e-01,-1,-0.8725928571397858
1.21616061e+03,2.24997304e+02,-2.16963214e-06,4.69421108,1.45424150,-3.84509855,7.50629007e-01,4.19161390e-05,7.52273583,-3.57928341e-01,-1,-0.8698368966129579
1.23371602e+03,2.24997266e+02,-2.16639173e-06,4.69524669,1.45218134,-3.84509855,7.50628995e-01,4.19552731e-05,7.52475959,-3.51850348e-01,-1,-0.8670809360861301
1.25127143e+03,2.24997228e+02,-2.16315132e-06,4.69628230,1.45012118,-3.84509855,7.50628982e-01,4.19944071e-05,7.52678335,-3.45772354e-01,-1,-0.8643249755593023
1.26882684e+03,2.24997190e+02,-2.15991090e-06,4.69731791,1.44806102,-3.84509855,7.50628970e-01,4.20335412e-05,7.52880711,-3.39694360e-01,-1,-0.8615690150324745
1.28638225e+03,2.24997152e+02,-2.15667049e-06,4.69835352,1.44600087,-3.84509855,7.50628958e-01,4.20726753e-05,7.53083087,-3.33616366e-01,-1,-0.8588130545056466
1.30522315e+03,2.24997112e+02,-2.15145272e-06,4.69941859,1.44387563,-3.84509856,7.50628941e-01,4.21253912e-05,7.53292575,-3.27323667e-01,-1,-0.8558552895380435
1.32421816e+03,2.24997072e+02,-2.14599788e-06,4.70048720,1.44174259,-3.84509856,7.50628923e-01,4.21797354e-05,7.53502914,-3.21005228e-01,-1,-0.8528733313971228
1.34321318e+03,2.24997031e+02,-2.14054305e-06,4.70155580,1.43960955,-3.84509856,7.50628906e-01,4.22340797e-05,7.53713254,-3.14686788e-01,-1,-0.8498913716863382
1.36220819e+03,2.24996991e+02,-2.13508821e-06,4.70262440,1.43747651,-3.84509856,7.50628889e-01,4.22884239e-05,7.53923594,-3.08368349e-01,-1,-0.8469094135454175
1.38120320e+03,2.24996950e+02,-2.12963337e-06,4.70369301,1.43534348,-3.84509856,7.50628871e-01,4.23427681e-05,7.54133933,-3.02049910e-01,-1,-0.8439274554044969
1.40126519e+03,2.24996908e+02,-2.12380361e-06,4.70479168,1.43315112,-3.84509856,7.50628849e-01,4.24109996e-05,7.54349996,-2.95560032e-01,-1,-0.8407779959199496
1.42154493e+03,2.24996865e+02,-2.11789733e-06,4.70589649,1.43094666,-3.84509856,7.50628826e-01,4.24820651e-05,7.54567226,-2.89035168e-01,-1,-0.8375943526479137
1.44182466e+03,2.24996823e+02,-2.11199105e-06,4.70700130,1.42874220,-3.84509856,7.50628804e-01,4.25531306e-05,7.54784457,-2.82510305e-01,-1,-0.8344107109457418
1.46210439e+03,2.24996780e+02,-2.10608477e-06,4.70810612,1.42653774,-3.84509856,7.50628781e-01,4.26241961e-05,7.55001688,-2.75985442e-01,-1,-0.8312270692435699
1.48283063e+03,2.24996737e+02,-2.10039200e-06,4.70922214,1.42431168,-3.84509856,7.50628755e-01,4.27028497e-05,7.55220874,-2.69402293e-01,-1,-0.8279733315462128
1.50448175e+03,2.24996692e+02,-2.09514149e-06,4.71036139,1.42204085,-3.84509856,7.50628725e-01,4.27972213e-05,7.55444111,-2.62698409e-01,-1,-0.824574400271944
1.52613288e+03,2.24996647e+02,-2.08989099e-06,4.71150064,1.41977003,-3.84509857,7.50628694e-01,4.28915929e-05,7.55667347,-2.55994525e-01,-1,-0.8211754674278111
1.54778400e+03,2.24996602e+02,-2.08464049e-06,4.71263989,1.41749920,-3.84509857,7.50628664e-01,4.29859646e-05,7.55890584,-2.49290641e-01,-1,-0.8177765361535422
1.56943512e+03,2.24996557e+02,-2.07938998e-06,4.71377914,1.41522838,-3.84509857,7.50628633e-01,4.30803362e-05,7.56113821,-2.42586757e-01,-1,-0.8143776048792732
1.59151937e+03,2.24996511e+02,-2.07399446e-06,4.71492616,1.41294158,-3.84509857,7.50628599e-01,4.31833559e-05,7.56338646,-2.35835096e-01,-1,-0.8109106780877829
1.61482314e+03,2.24996464e+02,-2.06819060e-06,4.71609504,1.41060983,-3.84509857,7.50628558e-01,4.33107260e-05,7.56567942,-2.28948907e-01,-1,-0.8072523032479886
1.63812692e+03,2.24996416e+02,-2.06238674e-06,4.71726391,1.40827808,-3.84509857,7.50628516e-01,4.34380961e-05,7.56797238,-2.22062719e-01,-1,-0.8035939268383303
1.66143069e+03,2.24996369e+02,-2.05658288e-06,4.71843279,1.40594633,-3.84509857,7.50628475e-01,4.35654662e-05,7.57026534,-2.15176530e-01,-1,-0.7999355519985358
1.68473447e+03,2.24996321e+02,-2.05077902e-06,4.71960167,1.40361457,-3.84509857,7.50628433e-01,4.36928363e-05,7.57255829,-2.08290341e-01,-1,-0.7962771755888776
1.70803824e+03,2.24996273e+02,-2.04497517e-06,4.72077055,1.40128282,-3.84509857,7.50628392e-01,4.38202064e-05,7.57485125,-2.01404153e-01,-1,-0.7926188007490831
1.73238079e+03,2.24996224e+02,-2.03723416e-06,4.72195394,1.39891753,-3.84509857,7.50628344e-01,4.39675569e-05,7.57718488,-1.94393361e-01,-1,-0.7887973515819984
1.75736875e+03,2.24996174e+02,-2.02828955e-06,4.72314634,1.39653140,-3.84509858,7.50628291e-01,4.41273219e-05,7.57954378,-1.87305151e-01,-1,-0.7848745818257834
1.78235671e+03,2.24996124e+02,-2.01934494e-06,4.72433874,1.39414526,-3.84509858,7.50628239e-01,4.42870869e-05,7.58190267,-1.80216940e-01,-1,-0.7809518120695684
1.80734467e+03,2.24996074e+02,-2.01040033e-06,4.72553114,1.39175913,-3.84509858,7.50628187e-01,4.44468518e-05,7.58426157,-1.73128729e-01,-1,-0.7770290423133536
1.83246342e+03,2.24996024e+02,-2.00145850e-06,4.72672680,1.38936681,-3.84509858,7.50628134e-01,4.46093250e-05,7.58662671,-1.66021913e-01,-1,-0.7730857403065501
1.85893264e+03,2.24995972e+02,-1.99254527e-06,4.72795606,1.38691059,-3.84509858,7.50628072e-01,4.47997615e-05,7.58905642,-1.58722990e-01,-1,-0.768930432883031
1.88540186e+03,2.24995920e+02,-1.98363205e-06,4.72918532,1.38445436,-3.84509858,7.50628009e-01,4.49901980e-05,7.59148612,-1.51424067e-01,-1,-0.7647751254595119
1.91187108e+03,2.24995868e+02,-1.97471883e-06,4.73041457,1.38199813,-3.84509858,7.50627947e-01,4.51806345e-05,7.59391583,-1.44125144e-01,-1,-0.7606198180359928
1.93838017e+03,2.24995816e+02,-1.96583972e-06,4.73164491,1.37953991,-3.84509858,7.50627884e-01,4.53720006e-05,7.59634744,-1.36821868e-01,-1,-0.7564582515649091
1.96641802e+03,2.24995762e+02,-1.95826891e-06,4.73291666,1.37700518,-3.84509859,7.50627810e-01,4.55990105e-05,7.59885215,-1.29351691e-01,-1,-0.7520566905727637
1.99445587e+03,2.24995708e+02,-1.95069811e-06,4.73418841,1.37447045,-3.84509859,7.50627736e-01,4.58260204e-05,7.60135685,-1.21881514e-01,-1,-0.7476551295806182
2.02249372e+03,2.24995653e+02,-1.94312730e-06,4.73546016,1.37193572,-3.84509859,7.50627661e-01,4.60530304e-05,7.60386155,-1.14411337e-01,-1,-0.7432535685884728
2.05053157e+03,2.24995599e+02,-1.93555650e-06,4.73673191,1.36940100,-3.84509859,7.50627587e-01,4.62800403e-05,7.60636626,-1.06941160e-01,-1,-0.7388520075963274
2.07936435e+03,2.24995544e+02,-1.92776739e-06,4.73802162,1.36683134,-3.84509859,7.50627506e-01,4.65252019e-05,7.60890551,-9.93769549e-02,-1,-0.734325653409287
2.10928270e+03,2.24995488e+02,-1.91968017e-06,4.73933587,1.36421399,-3.84509859,7.50627417e-01,4.67951513e-05,7.61149194,-9.16843453e-02,-1,-0.7296288795015389
2.13920105e+03,2.24995431e+02,-1.91159296e-06,4.74065012,1.36159665,-3.84509859,7.50627329e-01,4.70651007e-05,7.61407836,-8.39917357e-02,-1,-0.7249321055937907
2.16911940e+03,2.24995375e+02,-1.90350574e-06,4.74196437,1.35897930,-3.84509860,7.50627240e-01,4.73350501e-05,7.61666479,-7.62991261e-02,-1,-0.7202353316860428
2.19903775e+03,2.24995318e+02,-1.89541852e-06,4.74327862,1.35636195,-3.84509860,7.50627151e-01,4.76049995e-05,7.61925122,-6.86065165e-02,-1,-0.7155385577782947
2.22942624e+03,2.24995261e+02,-1.88631094e-06,4.74460117,1.35372661,-3.84509860,7.50627060e-01,4.78833561e-05,7.62185922,-6.08473418e-02,-1,-0.7107679782868501
2.26125065e+03,2.24995202e+02,-1.87408697e-06,4.74594909,1.35103631,-3.84509860,7.50626960e-01,4.81873899e-05,7.62453310,-5.28848632e-02,-1,-0.7057719788912458
