star_age,star_mass,star_mdot,log_Teff,log_R,log_surf_z,surface_h1,surface_he3,log_center_T,log_center_Rho,phase,x
2.24694553e+03,4.99999966e-01,-1.30753157e-11,3.64416489,8.91615597e-01,-2.84509847,7.47426481e-01,4.16806615e-05,5.71481811,-1.94834598,-1,-1.0
2.37411262e+03,4.99999965e-01,-1.28639789e-11,3.64430732,8.89054497e-01,-2.84509847,7.47426481e-01,4.16806615e-05,5.71720929,-1.94120959,-1,-0.9999988443471686
2.50852479e+03,4.99999963e-01,-1.26473001e-11,3.64446199,8.86392703e-01,-2.84509847,7.47426481e-01,4.16806616e-05,5.71969545,-1.93378966,-1,-0.9999976228534249
2.65053669e+03,4.99999961e-01,-1.24269999e-11,3.64464819,8.83628225e-01,-2.84509847,7.47426481e-01,4.16806617e-05,5.72227800,-1.92608171,-1,-0.9999963322958259
2.80046226e+03,4.99999959e-01,-1.22040712e-11,3.64481271,8.80761562e-01,-2.84509847,7.47426481e-01,4.16806618e-05,5.72495679,-1.91808577,-1,-0.9999949698213879
2.95864143e+03,4.99999957e-01,-1.19749968e-11,3.64498187,8.77791864e-01,-2.84509847,7.47426481e-01,4.16806619e-05,5.72773265,-1.90979935,-1,-0.9999935323409385
3.12539659e+03,4.99999955e-01,-1.17423789e-11,3.64515592,8.74718878e-01,-2.84509847,7.47426481e-01,4.16806620e-05,5.73060586,-1.90122254,-1,-0.999992016924703
3.30178828e+03,4.99999953e-01,-1.15058220e-11,3.64534180,8.71534052e-01,-2.84509847,7.47426481e-01,4.16806622e-05,5.73358464,-1.89232886,-1,-0.9999904139348414
3.48840621e+03,4.99999951e-01,-1.12650320e-11,3.64552197,8.68236014e-01,-2.84509847,7.47426481e-01,4.16806624e-05,5.73667032,-1.88311488,-1,-0.9999887180122626
3.68490801e+03,4.99999949e-01,-1.10222373e-11,3.64574669,8.64831863e-01,-2.84509847,7.47426481e-01,4.16806626e-05,5.73985618,-1.87360106,-1,-0.999986932268313
3.89292488e+03,4.99999947e-01,-1.07802619e-11,3.64593780,8.61310744e-01,-2.84509847,7.47426481e-01,4.16806629e-05,5.74315301,-1.86375396,-1,-0.9999850418791817
4.11228671e+03,4.99999945e-01,-1.05324789e-11,3.64613387,8.57679992e-01,-2.84509847,7.47426481e-01,4.16806632e-05,5.74655330,-1.85359594,-1,-0.9999830483907725
4.34419489e+03,4.99999942e-01,-1.02828282e-11,3.64635003,8.53932844e-01,-2.84509847,7.47426481e-01,4.16806637e-05,5.75006415,-1.84310840,-1,-0.9999809408852468
4.58860870e+03,4.99999940e-01,-1.00340753e-11,3.64658271,8.50074451e-01,-2.84509847,7.47426481e-01,4.16806642e-05,5.75368057,-1.83230457,-1,-0.9999787197326548
4.84728788e+03,4.99999937e-01,-9.78145866e-12,3.64679420,8.46097054e-01,-2.84509847,7.47426481e-01,4.16806648e-05,5.75741002,-1.82116205,-1,-0.9999763689410561
5.12013418e+03,4.99999935e-01,-9.52841285e-12,3.64700658,8.42007921e-01,-2.84509847,7.47426481e-01,4.16806656e-05,5.76124556,-1.80970125,-1,-0.9999738894033146
5.40780744e+03,4.99999932e-01,-9.27421763e-12,3.64722052,8.37807305e-01,-2.84509847,7.47426481e-01,4.16806665e-05,5.76518693,-1.79792213,-1,-0.9999712751230204
5.71214914e+03,4.99999929e-01,-9.01849974e-12,3.64742867,8.33488736e-01,-2.84509847,7.47426481e-01,4.16806677e-05,5.76924052,-1.78580607,-1,-0.999968509365407
6.03347379e+03,4.99999926e-01,-8.76364274e-12,3.64766874,8.29055320e-01,-2.84509847,7.47426481e-01,4.16806692e-05,5.77340361,-1.77336143,-1,-0.9999655892723108
6.37250599e+03,4.99999923e-01,-8.51339396e-12,3.64790943,8.24508996e-01,-2.84509847,7.47426481e-01,4.16806710e-05,5.77767457,-1.76059176,-1,-0.9999625082588042
6.73030543e+03,4.99999920e-01,-8.26148184e-12,3.64813520,8.19851202e-01,-2.84509847,7.47426481e-01,4.16806733e-05,5.78205241,-1.74750183,-1,-0.999959256694772
7.10807461e+03,4.99999917e-01,-8.01105722e-12,3.64839973,8.15079869e-01,-2.84509847,7.47426481e-01,4.16806763e-05,5.78653926,-1.73408680,-1,-0.9999558236522883
7.50681709e+03,4.99999914e-01,-7.76235775e-12,3.64862718,8.10198311e-01,-2.84509847,7.47426481e-01,4.16806800e-05,5.79113200,-1.72035488,-1,-0.9999522000113287
7.92775981e+03,4.99999911e-01,-7.51645814e-12,3.64885567,8.05211273e-01,-2.84509847,7.47426481e-01,4.16806847e-05,5.79571156,-1.70651406,-1,-0.9999483746218648
8.37204376e+03,4.99999908e-01,-7.27219094e-12,3.64908403,8.00116819e-01,-2.84509847,7.47426481e-01,4.16806907e-05,5.80045056,-1.69227252,-1,-0.9999443371149533
8.84088931e+03,4.99999905e-01,-7.03032080e-12,3.64931190,7.94915068e-01,-2.84509847,7.47426481e-01,4.16806983e-05,5.80534391,-1.67762681,-1,-0.9999400764002718
9.33580374e+03,4.99999901e-01,-6.79427017e-12,3.64961235,7.89604427e-01,-2.84509847,7.47426481e-01,4.16807082e-05,5.81034414,-1.66266268,-1,-0.9999355787801537
9.85799355e+03,4.99999898e-01,-6.56030102e-12,3.64985084,7.84193178e-01,-2.84509847,7.47426481e-01,4.16807208e-05,5.81543969,-1.64741035,-1,-0.9999308332903223
1.04094646e+04,4.99999894e-01,-6.32903058e-12,3.65008242,7.78680539e-01,-2.84509847,7.47426481e-01,4.16807372e-05,5.82063850,-1.63185095,-1,-0.9999258217021796
1.09912033e+04,4.99999891e-01,-6.10125967e-12,3.65031461,7.73070905e-01,-2.84509847,7.47426481e-01,4.16807584e-05,5.82593280,-1.61600383,-1,-0.9999205350515546
1.16049661e+04,4.99999887e-01,-5.87950208e-12,3.65058286,7.67363610e-01,-2.84509847,7.47426481e-01,4.16807859e-05,5.83132274,-1.59987045,-1,-0.9999149573764057
1.22531778e+04,4.99999883e-01,-5.66101032e-12,3.65081242,7.61562073e-01,-2.84509847,7.47426481e-01,4.16808220e-05,5.83680582,-1.58345917,-1,-0.9999090666409451
1.29363693e+04,4.99999879e-01,-5.44669353e-12,3.65103535,7.55673675e-01,-2.84509847,7.47426481e-01,4.16808688e-05,5.84237293,-1.56679522,-1,-0.9999028580205277
1.36583459e+04,4.99999876e-01,-5.23707473e-12,3.65129473,7.49692443e-01,-2.84509847,7.47426481e-01,4.16809305e-05,5.84803132,-1.54985841,-1,-0.9998962969338344
1.44189694e+04,4.99999872e-01,-5.03385878e-12,3.65151965,7.43628390e-01,-2.84509847,7.47426481e-01,4.16810110e-05,5.85377107,-1.53267581,-1,-0.9998893846367815
1.52228748e+04,4.99999868e-01,-4.83511766e-12,3.65176411,7.37478249e-01,-2.84509847,7.47426481e-01,4.16811178e-05,5.85959470,-1.51524184,-1,-0.9998820790080081
1.60697794e+04,4.99999864e-01,-4.64127931e-12,3.65198501,7.31250814e-01,-2.84509847,7.47426481e-01,4.16812577e-05,5.86549501,-1.49757504,-1,-0.9998743826165993
1.69643157e+04,4.99999860e-01,-4.45248943e-12,3.65220004,7.24946163e-01,-2.84509847,7.47426481e-01,4.16814438e-05,5.87147170,-1.47967329,-1,-0.9998662533639135
1.79079320e+04,4.99999856e-01,-4.26917238e-12,3.65242865,7.18566041e-01,-2.84509847,7.47426481e-01,4.16816899e-05,5.87752355,-1.46154474,-1,-0.9998576780882751
1.89026379e+04,4.99999852e-01,-4.09063929e-12,3.65262906,7.12117427e-01,-2.84509847,7.47426481e-01,4.16820151e-05,5.88364401,-1.44320767,-1,-0.9998486385270977
1.99535580e+04,4.99999847e-01,-3.91777079e-12,3.65288439,7.05595336e-01,-2.84509847,7.47426481e-01,4.16824496e-05,5.88983772,-1.42465191,-1,-0.9998390881096966
2.10618056e+04,4.99999843e-01,-3.75229574e-12,3.65309012,6.99007428e-01,-2.84509847,7.47426481e-01,4.16830281e-05,5.89609752,-1.40589935,-1,-0.9998290167187661
2.22305324e+04,4.99999839e-01,-3.59057259e-12,3.65328370,6.92358353e-01,-2.84509847,7.47426480e-01,4.16837983e-05,5.90241837,-1.38696330,-1,-0.9998183957126897
2.34634540e+04,4.99999835e-01,-3.43362826e-12,3.65346383,6.85650709e-01,-2.84509847,7.47426480e-01,4.16848265e-05,5.90879795,-1.36784662,-1,-0.9998071913253125
2.47639979e+04,4.99999830e-01,-3.28230950e-12,3.65363880,6.78888318e-01,-2.84509847,7.47426480e-01,4.16861997e-05,5.91523301,-1.34855983,-1,-0.9997953724086379
2.61361776e+04,4.99999826e-01,-3.13616891e-12,3.65380218,6.72074481e-01,-2.84509847,7.47426479e-01,4.16880384e-05,5.92172109,-1.32911193,-1,-0.9997829024892936
2.75847957e+04,4.99999822e-01,-2.99630643e-12,3.65400964,6.65205212e-01,-2.84509847,7.47426478e-01,4.16905055e-05,5.92826631,-1.30949560,-1,-0.9997697379228248
2.91122948e+04,4.99999817e-01,-2.86050341e-12,3.65417603,6.58292993e-01,-2.84509847,7.47426477e-01,4.16938083e-05,5.93485704,-1.28974461,-1,-0.9997558565116834
3.07234298e+04,4.99999813e-01,-2.73056733e-12,3.65431734,6.51342222e-01,-2.84509847,7.47426476e-01,4.16982382e-05,5.94148856,-1.26986988,-1,-0.9997412150448967
3.24232479e+04,4.99999808e-01,-2.60519702e-12,3.65444781,6.44358085e-01,-2.84509847,7.47426474e-01,4.17041859e-05,5.94815516,-1.24988632,-1,-0.9997257676551655
3.42171830e+04,4.99999804e-01,-2.48470286e-12,3.65460757,6.37342320e-01,-2.84509847,7.47426471e-01,4.17121695e-05,5.95485481,-1.22980152,-1,-0.9997094649609878
3.61096064e+04,4.99999799e-01,-2.37052160e-12,3.65475248,6.30301297e-01,-2.84509847,7.47426467e-01,4.17228786e-05,5.96158107,-1.20963220,-1,-0.9996922672374218
3.81055461e+04,4.99999795e-01,-2.26011619e-12,3.65485915,6.23246679e-01,-2.84509847,7.47426463e-01,4.17372361e-05,5.96832358,-1.18941434,-1,-0.9996741287916517
4.02114237e+04,4.99999790e-01,-2.15448824e-12,3.65495560,6.16185962e-01,-2.84509847,7.47426456e-01,4.17564823e-05,5.97507627,-1.16916197,-1,-0.9996549912662817
4.24338298e+04,4.99999785e-01,-2.05380648e-12,3.65505815,6.09127882e-01,-2.84509847,7.47426448e-01,4.17822530e-05,5.98183043,-1.14890803,-1,-0.9996347947680989
4.47785438e+04,4.99999781e-01,-1.95767968e-12,3.65513035,6.02089984e-01,-2.84509847,7.47426436e-01,4.18166978e-05,5.98856895,-1.12869736,-1,-0.9996134867758107
4.72531310e+04,4.99999776e-01,-1.86619527e-12,3.65519071,5.95088194e-01,-2.84509847,7.47426421e-01,4.18626424e-05,5.99527574,-1.10857832,-1,-0.9995909985384503
4.98666417e+04,4.99999771e-01,-1.78016124e-12,3.65529030,5.88136048e-01,-2.84509847,7.47426400e-01,4.19237826e-05,6.00193808,-1.08859119,-1,-0.9995672478098581
5.26247060e+04,4.99999767e-01,-1.69838794e-12,3.65533220,5.81269072e-01,-2.84509847,7.47426373e-01,4.20047899e-05,6.00852194,-1.06884173,-1,-0.9995421834255303
5.55375569e+04,4.99999762e-01,-1.62132485e-12,3.65536577,5.74514385e-01,-2.84509847,7.47426338e-01,4.21116327e-05,6.01500158,-1.04940655,-1,-0.9995157123913172
5.86144865e+04,4.99999757e-01,-1.54913000e-12,3.65538653,5.67907524e-01,-2.84509847,7.47426291e-01,4.22516186e-05,6.02134278,-1.03038465,-1,-0.9994877502636598
6.18653201e+04,4.99999752e-01,-1.48188242e-12,3.65538791,5.61491725e-01,-2.84509847,7.47426231e-01,4.24334979e-05,6.02750348,-1.01189993,-1,-0.9994582077534521
6.53015789e+04,4.99999747e-01,-1.41964118e-12,3.65537748,5.55313513e-01,-2.84509847,7.47426153e-01,4.26675263e-05,6.03343851,-9.94090764e-01,-1,-0.999426980159805
6.89343138e+04,4.99999742e-01,-1.36250272e-12,3.65536062,5.49420861e-01,-2.84509847,7.47426053e-01,4.29646988e-05,6.03910117,-9.77098042e-01,-1,-0.9993939670557616
7.27820952e+04,4.99999737e-01,-1.31124867e-12,3.65539075,5.43860692e-01,-2.84509847,7.47425929e-01,4.33387791e-05,6.04444636,-9.61054283e-01,-1,-0.9993589996796134
7.68473923e+04,4.99999732e-01,-1.26449606e-12,3.65536445,5.38671351e-01,-2.84509847,7.47425776e-01,4.37981545e-05,6.04943694,-9.46076342e-01,-1,-0.9993220555920803
8.11541044e+04,4.99999727e-01,-1.22277530e-12,3.65533689,5.33891330e-01,-2.84509847,7.47425590e-01,4.43565229e-05,6.05403554,-9.32276412e-01,-1,-0.9992829176041576
8.57102833e+04,4.99999721e-01,-1.18580631e-12,3.65531134,5.29516990e-01,-2.84509847,7.47425369e-01,4.50186029e-05,6.05824506,-9.19642355e-01,-1,-0.999241512543726
9.05299216e+04,4.99999716e-01,-1.15302176e-12,3.65527592,5.25534900e-01,-2.84509847,7.47425112e-01,4.57879249e-05,6.06207791,-9.08140034e-01,-1,-0.9991977132506231
9.56256594e+04,4.99999710e-01,-1.12391306e-12,3.65523949,5.21903787e-01,-2.84509847,7.47424821e-01,4.66632249e-05,6.06557388,-8.97648050e-01,-1,-0.9991514048557634
1.01014226e+05,4.99999704e-01,-1.09788229e-12,3.65520262,5.18567555e-01,-2.84509847,7.47424495e-01,4.76410216e-05,6.06878663,-8.88005514e-01,-1,-0.9991024353287519
1.06720668e+05,4.99999698e-01,-1.07427992e-12,3.65516530,5.15453342e-01,-2.84509847,7.47424136e-01,4.87159997e-05,6.07178640,-8.79002516e-01,-1,-0.9990505770542976
1.12733892e+05,4.99999691e-01,-1.05225019e-12,3.65512598,5.12465546e-01,-2.84509847,7.47423751e-01,4.98709929e-05,6.07466486,-8.70363559e-01,-1,-0.9989959308455832
1.19108666e+05,4.99999685e-01,-1.03115218e-12,3.65508702,5.09522547e-01,-2.84509847,7.47423341e-01,5.11030383e-05,6.07750076,-8.61851264e-01,-1,-0.998937998988977
1.25824225e+05,4.99999678e-01,-1.01034718e-12,3.65504402,5.06534381e-01,-2.84509847,7.47422911e-01,5.23919449e-05,6.08038071,-8.53206877e-01,-1,-0.9988769701899921
1.32916326e+05,4.99999671e-01,-9.89136917e-13,3.65502003,5.03408233e-01,-2.84509847,7.47422466e-01,5.37268290e-05,6.08339416,-8.44160167e-01,-1,-0.9988125195007331
1.40418210e+05,4.99999664e-01,-9.66880845e-13,3.65496713,5.00041585e-01,-2.84509847,7.47422011e-01,5.50924445e-05,6.08664028,-8.34416555e-01,-1,-0.9987443448378877
1.48298386e+05,4.99999656e-01,-9.42872189e-13,3.65490533,4.96375486e-01,-2.84509847,7.47421552e-01,5.64684437e-05,6.09017578,-8.23803783e-01,-1,-0.9986727323813418
1.56643045e+05,4.99999649e-01,-9.16279663e-13,3.65482975,4.92238124e-01,-2.84509847,7.47421098e-01,5.78318612e-05,6.09416668,-8.11820977e-01,-1,-0.9985968988555388
1.65413814e+05,4.99999641e-01,-8.86900598e-13,3.65477542,4.87560333e-01,-2.84509847,7.47420656e-01,5.91561636e-05,6.09867987,-7.98271660e-01,-1,-0.9985171929817249
1.74634837e+05,4.99999633e-01,-8.54047396e-13,3.65466455,4.82189905e-01,-2.84509847,7.47420240e-01,6.04046591e-05,6.10386276,-7.82709719e-01,-1,-0.9984333953471421
1.84311358e+05,4.99999625e-01,-8.17108887e-13,3.65452540,4.75974290e-01,-2.84509847,7.47419864e-01,6.15341367e-05,6.10986303,-7.64691689e-01,-1,-0.9983454582960372
1.94445828e+05,4.99999617e-01,-7.75891197e-13,3.65437379,4.68747331e-01,-2.84509847,7.47419544e-01,6.24927268e-05,6.11684252,-7.43732706e-01,-1,-0.9982533595545254
2.05019202e+05,4.99999609e-01,-7.30997070e-13,3.65417899,4.60406500e-01,-2.84509847,7.47419297e-01,6.32328461e-05,6.12490045,-7.19532992e-01,-1,-0.9981572721973244
2.16022855e+05,4.99999601e-01,-6.82755815e-13,3.65391266,4.50959234e-01,-2.84509847,7.47419134e-01,6.37234393e-05,6.13403094,-6.92112252e-01,-1,-0.998057274605607
2.27472555e+05,4.99999594e-01,-6.33441305e-13,3.65358260,4.40626185e-01,-2.84509847,7.47419048e-01,6.39823072e-05,6.14402301,-6.62096657e-01,-1,-0.9979532234849577
2.39439790e+05,4.99999586e-01,-5.85550776e-13,3.65320465,4.29812370e-01,-2.84509847,7.47419016e-01,6.40783874e-05,6.15448767,-6.30658000e-01,-1,-0.9978444691758646
2.52015650e+05,4.99999579e-01,-5.41040648e-13,3.65280771,4.18938342e-01,-2.84509847,7.47419008e-01,6.41006247e-05,6.16501676,-5.99029385e-01,-1,-0.9977301838822649
2.65280788e+05,4.99999573e-01,-5.00404558e-13,3.65238630,4.08242945e-01,-2.84509847,7.47419007e-01,6.41032945e-05,6.17537782,-5.67903993e-01,-1,-0.9976096346561307
2.79269668e+05,4.99999566e-01,-4.63685721e-13,3.65192157,3.97778657e-01,-2.84509847,7.47419007e-01,6.41034515e-05,6.18570240,-5.37102906e-01,-1,-0.9974825082999267
2.94031490e+05,4.99999559e-01,-4.30071554e-13,3.65142598,3.87547227e-01,-2.84509847,7.47419007e-01,6.41034554e-05,6.19564032,-5.07255594e-01,-1,-0.9973483577001795
3.09611056e+05,4.99999553e-01,-3.99418852e-13,3.65090224,3.77528678e-01,-2.84509847,7.47419007e-01,6.41034555e-05,6.20536073,-4.78042184e-01,-1,-0.9972067757109981
3.26063320e+05,4.99999547e-01,-3.71475145e-13,3.65040147,3.67693622e-01,-2.84509847,7.47419007e-01,6.41034555e-05,6.21490687,-4.49351714e-01,-1,-0.9970572629284432
3.43403437e+05,4.99999541e-01,-3.45743351e-13,3.64984190,3.58046542e-01,-2.84509847,7.47419007e-01,6.41034555e-05,6.22427440,-4.21190933e-01,-1,-0.9968996816288423
3.61693656e+05,4.99999535e-01,-3.22107711e-13,3.64925358,3.48571419e-01,-2.84509847,7.47419007e-01,6.41034555e-05,6.23347898,-3.93517736e-01,-1,-0.9967334661136872
3.80990546e+05,4.99999529e-01,-3.00353959e-13,3.64863996,3.39258233e-01,-2.84509847,7.47419007e-01,6.41034555e-05,6.24252964,-3.66305513e-01,-1,-0.9965581023024479
4.01340769e+05,4.99999523e-01,-2.80290660e-13,3.64800121,3.30095598e-01,-2.84509847,7.47419007e-01,6.41034555e-05,6.25143695,-3.39526491e-01,-1,-0.9963731661461631
4.22802024e+05,4.99999517e-01,-2.61765500e-13,3.64733973,3.21073967e-01,-2.84509847,7.47419007e-01,6.41034555e-05,6.26021028,-3.13144187e-01,-1,-0.9961781332952334
4.45445349e+05,4.99999511e-01,-2.44678475e-13,3.64668072,3.12179533e-01,-2.84509847,7.47419007e-01,6.41034555e-05,6.26886337,-2.87120982e-01,-1,-0.9959723581795992
4.69313164e+05,4.99999506e-01,-2.28820888e-13,3.64597915,3.03414201e-01,-2.84509847,7.47419007e-01,6.41034555e-05,6.27739346,-2.61465728e-01,-1,-0.9957554553002049
4.94488505e+05,4.99999500e-01,-2.14127872e-13,3.64526967,2.94764714e-01,-2.84509847,7.47419007e-01,6.41034555e-05,6.28581372,-2.36138951e-01,-1,-0.9955266700530998
5.21044409e+05,4.99999495e-01,-2.00547727e-13,3.64454080,2.86227508e-01,-2.84509847,7.47419007e-01,6.41034555e-05,6.29412760,-2.11127469e-01,-1,-0.9952853387019679
5.49060208e+05,4.99999489e-01,-1.87941514e-13,3.64381309,2.77790972e-01,-2.84509847,7.47419007e-01,6.41034555e-05,6.30234690,-1.86402183e-01,-1,-0.9950307403035962
5.78589161e+05,4.99999484e-01,-1.76190856e-13,3.64305381,2.69454417e-01,-2.84509847,7.47419007e-01,6.41034555e-05,6.31047144,-1.61962409e-01,-1,-0.99476239085765
6.09716391e+05,4.99999479e-01,-1.65249659e-13,3.64227707,2.61210239e-01,-2.84509847,7.47419007e-01,6.41034556e-05,6.31850797,-1.37784029e-01,-1,-0.9944795167942064
6.42561853e+05,4.99999474e-01,-1.55071696e-13,3.64148858,2.53054487e-01,-2.84509847,7.47419007e-01,6.41034556e-05,6.32645956,-1.13853602e-01,-1,-0.9941810280015442
6.77194384e+05,4.99999468e-01,-1.45586333e-13,3.64069317,2.44980344e-01,-2.84509847,7.47419007e-01,6.41034557e-05,6.33433287,-9.01581790e-02,-1,-0.9938662989115704
7.13708839e+05,4.99999463e-01,-1.36740527e-13,3.63988794,2.36983873e-01,-2.84509847,7.47419007e-01,6.41034557e-05,6.34213270,-6.66816944e-02,-1,-0.9935344675131365
7.52234708e+05,4.99999458e-01,-1.28502214e-13,3.63908021,2.29060850e-01,-2.84509847,7.47419007e-01,6.41034558e-05,6.34986302,-4.34132358e-02,-1,-0.9931843570435662
7.92847870e+05,4.99999453e-01,-1.20809428e-13,3.63826959,2.21205603e-01,-2.84509847,7.47419007e-01,6.41034559e-05,6.35752849,-2.03354178e-02,-1,-0.992815277939379
8.35707704e+05,4.99999448e-01,-1.13626472e-13,3.63745445,2.13416198e-01,-2.84509847,7.47419007e-01,6.41034561e-05,6.36513139,2.55780010e-03,-1,-0.9924257818164636
8.80882060e+05,4.99999443e-01,-1.06909026e-13,3.63664168,2.05686030e-01,-2.84509847,7.47419007e-01,6.41034562e-05,6.37267826,2.52856492e-02,-1,-0.9920152520762598
9.28570143e+05,4.99999438e-01,-1.00638000e-13,3.63583570,1.98012112e-01,-2.84509847,7.47419007e-01,6.41034565e-05,6.38017238,4.78561413e-02,-1,-0.9915818784090225
9.78828627e+05,4.99999434e-01,-9.47661646e-14,3.63503528,1.90389148e-01,-2.84509847,7.47419007e-01,6.41034567e-05,6.38761842,7.02781120e-02,-1,-0.991125145780016
1.03189379e+06,4.99999429e-01,-8.92806704e-14,3.63424335,1.82815030e-01,-2.84509847,7.47419007e-01,6.41034571e-05,6.39501743,9.25636827e-02,-1,-0.9906429069722228
1.08783374e+06,4.99999424e-01,-8.41476629e-14,3.63346547,1.75284155e-01,-2.84509847,7.47419007e-01,6.41034576e-05,6.40237513,1.14728123e-01,-1,-0.9901345430424633
1.14687393e+06,4.99999419e-01,-7.93404221e-14,3.63269790,1.67795114e-01,-2.84509847,7.47419007e-01,6.41034582e-05,6.40969269,1.36778224e-01,-1,-0.9895980051477719
1.20914505e+06,4.99999414e-01,-7.48322121e-14,3.63194416,1.60343693e-01,-2.84509847,7.47419007e-01,6.41034589e-05,6.41697506,1.58723814e-01,-1,-0.9890321056202657
1.27481943e+06,4.99999410e-01,-7.06083033e-14,3.63120193,1.52927459e-01,-2.84509847,7.47419007e-01,6.41034599e-05,6.42422425,1.80573650e-01,-1,-0.9884352783813904
1.34414994e+06,4.99999405e-01,-6.66496810e-14,3.63047854,1.45542563e-01,-2.84509847,7.47419007e-01,6.41034611e-05,6.43144370,2.02334023e-01,-1,-0.9878052254314713
1.41725823e+06,4.99999400e-01,-6.29319353e-14,3.62977195,1.38185276e-01,-2.84509847,7.47419007e-01,6.41034626e-05,6.43863741,2.24017917e-01,-1,-0.9871408412551823
1.49439617e+06,4.99999396e-01,-5.94414415e-14,3.62908102,1.30853745e-01,-2.84509847,7.47419007e-01,6.41034646e-05,6.44580779,2.45631439e-01,-1,-0.9864398369405208
1.57578790e+06,4.99999391e-01,-5.61620832e-14,3.62840463,1.23546362e-01,-2.84509847,7.47419007e-01,6.41034670e-05,6.45295530,2.67182334e-01,-1,-0.9857001755766347
