star_age,star_mass,star_mdot,log_Teff,log_R,log_surf_z,surface_h1,surface_he3,log_center_T,log_center_Rho,phase,x
1.16446253e+03,6.49999957e-01,-3.63218192e-11,3.69980692,1.00343667,-4.84509847,7.50949395e-01,4.13306750e-05,5.71189270,-2.17735216,-1,-1.0
1.22848885e+03,6.49999955e-01,-3.56975640e-11,3.69998788,1.00068118,-4.84509847,7.50949395e-01,4.13306750e-05,5.71448858,-2.16960276,-1,-0.9999984367584269
1.29600291e+03,6.49999953e-01,-3.50615115e-11,3.70017464,9.97826765e-01,-4.84509847,7.50949395e-01,4.13306751e-05,5.71717839,-2.16157250,-1,-0.9999967883615589
1.36714633e+03,6.49999950e-01,-3.44134357e-11,3.70036690,9.94872887e-01,-4.84509847,7.50949395e-01,4.13306751e-05,5.71996245,-2.15325885,-1,-0.9999950513516573
1.44205982e+03,6.49999948e-01,-3.37531036e-11,3.70056680,9.91819296e-01,-4.84509847,7.50949395e-01,4.13306751e-05,5.72284090,-2.14466145,-1,-0.9999932222932022
1.52088207e+03,6.49999945e-01,-3.30881442e-11,3.70077220,9.88666087e-01,-4.84509847,7.50949395e-01,4.13306751e-05,5.72581416,-2.13578043,-1,-0.9999912977999924
1.60437067e+03,6.49999942e-01,-3.24160179e-11,3.70098384,9.85398939e-01,-4.84509847,7.50949395e-01,4.13306752e-05,5.72889593,-2.12657519,-1,-0.9999892593750072
1.69231823e+03,6.49999940e-01,-3.17346193e-11,3.70120159,9.82027564e-01,-4.84509847,7.50949395e-01,4.13306752e-05,5.73207702,-2.11707378,-1,-0.9999871120817996
1.78468721e+03,6.49999937e-01,-3.10460846e-11,3.70142505,9.78556699e-01,-4.84509847,7.50949395e-01,4.13306753e-05,5.73535306,-2.10728698,-1,-0.9999848568369316
1.88267052e+03,6.49999934e-01,-3.03500676e-11,3.70165525,9.74965432e-01,-4.84509847,7.50949395e-01,4.13306753e-05,5.73874376,-2.09715680,-1,-0.9999824645147793
1.98547189e+03,6.49999931e-01,-2.96473903e-11,3.70189126,9.71275223e-01,-4.84509847,7.50949395e-01,4.13306754e-05,5.74222927,-2.08674287,-1,-0.9999799545567597
2.09428048e+03,6.49999928e-01,-2.89431572e-11,3.70213360,9.67467588e-01,-4.84509847,7.50949395e-01,4.13306755e-05,5.74582671,-2.07599526,-1,-0.9999772979288073
2.20850963e+03,6.49999924e-01,-2.82362296e-11,3.70238145,9.63559019e-01,-4.84509847,7.50949395e-01,4.13306756e-05,5.74952077,-2.06495772,-1,-0.9999745089545833
2.32945866e+03,6.49999921e-01,-2.75251241e-11,3.70263486,9.59531408e-01,-4.84509847,7.50949395e-01,4.13306758e-05,5.75332851,-2.05357851,-1,-0.999971555910399
2.45670674e+03,6.49999917e-01,-2.68117543e-11,3.70289463,9.55397975e-01,-4.84509847,7.50949395e-01,4.13306760e-05,5.75723731,-2.04189716,-1,-0.9999684490710748
2.59065928e+03,6.49999914e-01,-2.61026918e-11,3.70315986,9.51157926e-01,-4.84509847,7.50949395e-01,4.13306762e-05,5.76124775,-2.02990853,-1,-0.9999651785382792
2.73217819e+03,6.49999910e-01,-2.53934879e-11,3.70343081,9.46803674e-01,-4.84509847,7.50949395e-01,4.13306765e-05,5.76536754,-2.01759246,-1,-0.9999617232679545
2.88134178e+03,6.49999907e-01,-2.46842964e-11,3.70370588,9.42340611e-01,-4.84509847,7.50949395e-01,4.13306768e-05,5.76959172,-2.00496099,-1,-0.9999580813481147
3.03849003e+03,6.49999903e-01,-2.39789278e-11,3.70398647,9.37770142e-01,-4.84509847,7.50949395e-01,4.13306773e-05,5.77391865,-1.99202146,-1,-0.999954244477941
3.20409445e+03,6.49999899e-01,-2.32796527e-11,3.70427365,9.33092502e-01,-4.84509847,7.50949395e-01,4.13306778e-05,5.77834837,-1.97877272,-1,-0.9999502011452299
3.37863154e+03,6.49999895e-01,-2.25836609e-11,3.70456408,9.28307955e-01,-4.84509847,7.50949395e-01,4.13306785e-05,5.78288113,-1.96521724,-1,-0.9999459397159437
3.56260035e+03,6.49999891e-01,-2.18927953e-11,3.70485854,9.23417498e-01,-4.84509847,7.50949395e-01,4.13306794e-05,5.78751574,-1.95135439,-1,-0.999941448005473
3.75650382e+03,6.49999887e-01,-2.12047863e-11,3.70515566,9.18422098e-01,-4.84509847,7.50949395e-01,4.13306805e-05,5.79225202,-1.93718642,-1,-0.9999367137342317
3.96088254e+03,6.49999883e-01,-2.05283772e-11,3.70545871,9.13323172e-01,-4.84509847,7.50949395e-01,4.13306819e-05,5.79708865,-1.92271800,-1,-0.9999317237033856
4.17623534e+03,6.49999878e-01,-1.98605495e-11,3.70576558,9.08123317e-01,-4.84509847,7.50949395e-01,4.13306838e-05,5.80202347,-1.90795507,-1,-0.9999264657336968
4.40314249e+03,6.49999874e-01,-1.92030488e-11,3.70607624,9.02828029e-01,-4.84509847,7.50949395e-01,4.13306861e-05,5.80696717,-1.89305710,-1,-0.9999209256575201
4.64215577e+03,6.49999869e-01,-1.85551039e-11,3.70639019,8.97437356e-01,-4.84509847,7.50949395e-01,4.13306891e-05,5.81200262,-1.87788764,-1,-0.999915090002811
4.89427476e+03,6.49999865e-01,-1.79169375e-11,3.70670736,8.91945062e-01,-4.84509847,7.50949395e-01,4.13306930e-05,5.81721435,-1.86228333,-1,-0.9999089343642154
5.15998728e+03,6.49999860e-01,-1.72889552e-11,3.70702576,8.86358712e-01,-4.84509847,7.50949395e-01,4.13306981e-05,5.82251579,-1.84640803,-1,-0.9999024468313108
5.43971334e+03,6.49999855e-01,-1.66706145e-11,3.70734765,8.80680660e-01,-4.84509847,7.50949395e-01,4.13307046e-05,5.82791167,-1.83025227,-1,-0.9998956171492978
5.73451179e+03,6.49999851e-01,-1.60693626e-11,3.70767180,8.74910878e-01,-4.84509847,7.50949395e-01,4.13307131e-05,5.83339977,-1.81382431,-1,-0.9998884194657088
6.04536043e+03,6.49999846e-01,-1.54791677e-11,3.70799821,8.69053571e-01,-4.84509847,7.50949395e-01,4.13307243e-05,5.83897299,-1.79714031,-1,-0.9998808299069619
6.37236983e+03,6.49999841e-01,-1.49012410e-11,3.70832639,8.63113584e-01,-4.84509847,7.50949395e-01,4.13307388e-05,5.84462703,-1.78021375,-1,-0.9998728457734233
6.71758982e+03,6.49999836e-01,-1.43370310e-11,3.70865446,8.57085455e-01,-4.84509847,7.50949395e-01,4.13307581e-05,5.85036885,-1.76302600,-1,-0.9998644170172456
7.08060053e+03,6.49999831e-01,-1.37835609e-11,3.70898350,8.50979959e-01,-4.84509847,7.50949395e-01,4.13307832e-05,5.85618675,-1.74560578,-1,-0.9998555538898107
7.46379407e+03,6.49999826e-01,-1.32497656e-11,3.70931518,8.44794056e-01,-4.84509847,7.50949395e-01,4.13308165e-05,5.86208429,-1.72794651,-1,-0.9998461979862968
7.86691333e+03,6.49999820e-01,-1.27280396e-11,3.70965088,8.38533966e-01,-4.84509847,7.50949395e-01,4.13308602e-05,5.86805553,-1.71006291,-1,-0.9998363555842013
8.29197897e+03,6.49999815e-01,-1.22206787e-11,3.70998425,8.32197297e-01,-4.84509847,7.50949395e-01,4.13309184e-05,5.87410355,-1.69194578,-1,-0.9998259773478799
8.73969297e+03,6.49999810e-01,-1.17255233e-11,3.71031657,8.25790921e-01,-4.84509847,7.50949395e-01,4.13309954e-05,5.88022040,-1.67362426,-1,-0.9998150461380642
9.21105167e+03,6.49999805e-01,-1.12473208e-11,3.71065190,8.19316059e-01,-4.84509847,7.50949395e-01,4.13310972e-05,5.88640551,-1.65509697,-1,-0.9998035376285063
9.70798491e+03,6.49999799e-01,-1.07847199e-11,3.71098563,8.12773084e-01,-4.84509847,7.50949395e-01,4.13312332e-05,5.89265834,-1.63636681,-1,-0.999791404700988
1.02315356e+04,6.49999794e-01,-1.03355586e-11,3.71131907,8.06166600e-01,-4.84509847,7.50949395e-01,4.13314146e-05,5.89897506,-1.61744223,-1,-0.9997786218922271
1.07828280e+04,6.49999788e-01,-9.90047831e-12,3.71165184,7.99499297e-01,-4.84509847,7.50949395e-01,4.13316560e-05,5.90535315,-1.59833426,-1,-0.9997651617527312
1.13634077e+04,6.49999783e-01,-9.47964445e-12,3.71198359,7.92773931e-01,-4.84509847,7.50949395e-01,4.13319778e-05,5.91178992,-1.57904563,-1,-0.9997509865459798
1.19751329e+04,6.49999777e-01,-9.07238220e-12,3.71231394,7.85990607e-01,-4.84509847,7.50949395e-01,4.13324083e-05,5.91828502,-1.55957980,-1,-0.9997360509028889
1.26198594e+04,6.49999771e-01,-8.68089773e-12,3.71264314,7.79154264e-01,-4.84509847,7.50949395e-01,4.13329863e-05,5.92483388,-1.53995360,-1,-0.9997203095129719
1.32989111e+04,6.49999765e-01,-8.30258779e-12,3.71297086,7.72266756e-01,-4.84509847,7.50949394e-01,4.13337605e-05,5.93143417,-1.52017323,-1,-0.9997037300524044
1.40141443e+04,6.49999760e-01,-7.93786724e-12,3.71329702,7.65330311e-01,-4.84509847,7.50949394e-01,4.13347980e-05,5.93808461,-1.50024247,-1,-0.9996862671984922
1.47674909e+04,6.49999754e-01,-7.58611052e-12,3.71361941,7.58347438e-01,-4.84509847,7.50949393e-01,4.13361897e-05,5.94478220,-1.48016911,-1,-0.9996678737827209
1.55610592e+04,6.49999748e-01,-7.24708012e-12,3.71394089,7.51321935e-01,-4.84509847,7.50949393e-01,4.13380572e-05,5.95152463,-1.45995869,-1,-0.9996484983296628
1.63970046e+04,6.49999742e-01,-6.92344412e-12,3.71426045,7.44256718e-01,-4.84509847,7.50949392e-01,4.13405671e-05,5.95830827,-1.43962403,-1,-0.9996280882139149
1.72775722e+04,6.49999736e-01,-6.61133954e-12,3.71457729,7.37155623e-01,-4.84509847,7.50949391e-01,4.13439400e-05,5.96512950,-1.41917311,-1,-0.9996065886199942
1.82051373e+04,6.49999730e-01,-6.31114991e-12,3.71489037,7.30021205e-01,-4.84509847,7.50949389e-01,4.13484725e-05,5.97198540,-1.39861870,-1,-0.9995839415535055
1.91822635e+04,6.49999724e-01,-6.02353469e-12,3.71520134,7.22857090e-01,-4.84509847,7.50949387e-01,4.13545639e-05,5.97887331,-1.37796498,-1,-0.9995600844225944
2.02115761e+04,6.49999718e-01,-5.74823053e-12,3.71550868,7.15669073e-01,-4.84509847,7.50949385e-01,4.13627522e-05,5.98578818,-1.35722841,-1,-0.9995349531289636
2.12958009e+04,6.49999712e-01,-5.48363347e-12,3.71580601,7.08463220e-01,-4.84509847,7.50949381e-01,4.13737497e-05,5.99272371,-1.33643147,-1,-0.9995084811205468
2.24380880e+04,6.49999706e-01,-5.23147414e-12,3.71610577,7.01245302e-01,-4.84509847,7.50949376e-01,4.13885161e-05,5.99967441,-1.31558856,-1,-0.9994805914857353
2.36414842e+04,6.49999700e-01,-4.99044164e-12,3.71639982,6.94024043e-01,-4.84509847,7.50949369e-01,4.14083220e-05,6.00663098,-1.29472749,-1,-0.9994512098350526
2.49093484e+04,6.49999694e-01,-4.76031247e-12,3.71668743,6.86810686e-01,-4.84509847,7.50949361e-01,4.14348507e-05,6.01358289,-1.27387951,-1,-0.9994202541589108
2.62452114e+04,6.49999688e-01,-4.54071629e-12,3.71696789,6.79616353e-01,-4.84509847,7.50949349e-01,4.14703140e-05,6.02051861,-1.25307748,-1,-0.9993876382506788
2.76530201e+04,6.49999682e-01,-4.33263098e-12,3.71724150,6.72457593e-01,-4.84509847,7.50949333e-01,4.15176434e-05,6.02742279,-1.23236660,-1,-0.9993532657443908
2.91373422e+04,6.49999675e-01,-4.13511889e-12,3.71750738,6.65353842e-01,-4.84509847,7.50949312e-01,4.15807433e-05,6.03427700,-1.21180491,-1,-0.9993170251168711
3.07020597e+04,6.49999669e-01,-3.94844475e-12,3.71776692,6.58327147e-01,-4.84509847,7.50949284e-01,4.16643855e-05,6.04106009,-1.19145765,-1,-0.999278821586727
3.23518196e+04,6.49999663e-01,-3.77249388e-12,3.71801396,6.51408904e-01,-4.84509847,7.50949247e-01,4.17746970e-05,6.04774149,-1.17141605,-1,-0.9992385416946249
3.40917940e+04,6.49999656e-01,-3.60739224e-12,3.71825164,6.44632431e-01,-4.84509847,7.50949199e-01,4.19192668e-05,6.05428801,-1.15177874,-1,-0.9991960591605952
3.59272480e+04,6.49999650e-01,-3.45332232e-12,3.71847696,6.38037549e-01,-4.84509847,7.50949136e-01,4.21071700e-05,6.06066100,-1.13266253,-1,-0.9991512454340169
3.78652457e+04,6.49999644e-01,-3.31108820e-12,3.71868962,6.31672154e-01,-4.84509847,7.50949056e-01,4.23497887e-05,6.06681422,-1.11420127,-1,-0.9991039280405889
3.99119288e+04,6.49999637e-01,-3.18010831e-12,3.71888862,6.25584416e-01,-4.84509847,7.50948952e-01,4.26592150e-05,6.07270157,-1.09653381,-1,-0.9990539570269673
4.20722458e+04,6.49999630e-01,-3.06046460e-12,3.71907384,6.19815942e-01,-4.84509847,7.50948823e-01,4.30469399e-05,6.07828297,-1.07978566,-1,-0.9990012115725128
4.43542444e+04,6.49999623e-01,-2.95231488e-12,3.71924904,6.14407798e-01,-4.84509847,7.50948664e-01,4.35259809e-05,6.08351793,-1.06408100,-1,-0.9989454951877315
4.67650524e+04,6.49999617e-01,-2.85525867e-12,3.71940401,6.09392273e-01,-4.84509847,7.50948470e-01,4.41073133e-05,6.08837377,-1.04951418,-1,-0.9988866338430479
4.93137308e+04,6.49999609e-01,-2.76854199e-12,3.71953835,6.04782537e-01,-4.84509847,7.50948239e-01,4.48003730e-05,6.09283770,-1.03612188,-1,-0.9988244063086321
5.20050181e+04,6.49999602e-01,-2.69109813e-12,3.71966280,6.00557232e-01,-4.84509847,7.50947970e-01,4.56068060e-05,6.09692990,-1.02384403,-1,-0.9987586968911225
5.48472741e+04,6.49999595e-01,-2.62243453e-12,3.71977609,5.96682295e-01,-4.84509847,7.50947663e-01,4.65269919e-05,6.10068371,-1.01257959,-1,-0.9986893014809136
5.78462910e+04,6.49999587e-01,-2.56095003e-12,3.71988356,5.93098611e-01,-4.84509847,7.50947321e-01,4.75549573e-05,6.10415600,-1.00215932,-1,-0.9986160786579171
6.10119073e+04,6.49999579e-01,-2.50473376e-12,3.71997899,5.89733777e-01,-4.84509847,7.50946944e-01,4.86836139e-05,6.10741700,-9.92372130e-01,-1,-0.9985387882091672
6.43589974e+04,6.49999571e-01,-2.45216533e-12,3.72006930,5.86500746e-01,-4.84509847,7.50946538e-01,4.99036536e-05,6.11055115,-9.82966189e-01,-1,-0.9984570669671343
6.78761820e+04,6.49999562e-01,-2.40155777e-12,3.72015668,5.83304184e-01,-4.84509847,7.50946108e-01,5.11934521e-05,6.11365051,-9.73666644e-01,-1,-0.998371192764354
7.16023090e+04,6.49999553e-01,-2.35126660e-12,3.72024504,5.80043001e-01,-4.84509847,7.50945656e-01,5.25475062e-05,6.11681346,-9.64175175e-01,-1,-0.9982802171057029
7.55130481e+04,6.49999544e-01,-2.30013268e-12,3.72033591,5.76639274e-01,-4.84509847,7.50945192e-01,5.39402043e-05,6.12011519,-9.54267909e-01,-1,-0.9981847340302641
7.96493971e+04,6.49999535e-01,-2.24609987e-12,3.72043223,5.72960081e-01,-4.84509847,7.50944720e-01,5.53568205e-05,6.12368463,-9.43558967e-01,-1,-0.9980837425517971
8.39883748e+04,6.49999526e-01,-2.18814900e-12,3.72053544,5.68946269e-01,-4.84509847,7.50944248e-01,5.67733406e-05,6.12757939,-9.31873484e-01,-1,-0.9979778037702874
8.85678440e+04,6.49999516e-01,-2.12422965e-12,3.72064915,5.64426817e-01,-4.84509847,7.50943785e-01,5.81609387e-05,6.13196523,-9.18713936e-01,-1,-0.9978659932424275
9.33771177e+04,6.49999506e-01,-2.05330830e-12,3.72077515,5.59303774e-01,-4.84509847,7.50943343e-01,5.94868313e-05,6.13693719,-9.03794074e-01,-1,-0.9977485718978273
9.84205624e+04,6.49999496e-01,-1.97459061e-12,3.72091564,5.53439255e-01,-4.84509847,7.50942935e-01,6.07114050e-05,6.14262963,-8.86707609e-01,-1,-0.9976254331257315
1.03711088e+05,6.49999486e-01,-1.88656234e-12,3.72107324,5.46635169e-01,-4.84509847,7.50942579e-01,6.17783215e-05,6.14923575,-8.66873799e-01,-1,-0.9974962617230737
1.09234092e+05,6.49999476e-01,-1.78963205e-12,3.72124770,5.38805185e-01,-4.84509847,7.50942291e-01,6.26440828e-05,6.15684065,-8.44042471e-01,-1,-0.9973614142187796
1.14988877e+05,6.49999466e-01,-1.68471784e-12,3.72143552,5.29883428e-01,-4.84509847,7.50942083e-01,6.32669487e-05,6.16551075,-8.18014148e-01,-1,-0.9972209076402945
1.20983039e+05,6.49999456e-01,-1.57525050e-12,3.72163518,5.19954499e-01,-4.84509847,7.50941960e-01,6.36358691e-05,6.17516543,-7.89032111e-01,-1,-0.997074556526655
1.27237599e+05,6.49999446e-01,-1.46590532e-12,3.72183703,5.09341204e-01,-4.84509847,7.50941905e-01,6.38005522e-05,6.18549044,-7.58036011e-01,-1,-0.9969218476373517
1.33788810e+05,6.49999437e-01,-1.36177353e-12,3.72202528,4.98473355e-01,-4.84509847,7.50941889e-01,6.38500325e-05,6.19606638,-7.26278168e-01,-1,-0.9967618958333235
1.40680604e+05,6.49999428e-01,-1.26542317e-12,3.72219115,4.87667492e-01,-4.84509847,7.50941886e-01,6.38584146e-05,6.20658504,-6.94684415e-01,-1,-0.9965936284880511
1.47943891e+05,6.49999420e-01,-1.17765194e-12,3.72234096,4.77043634e-01,-4.84509847,7.50941886e-01,6.38591282e-05,6.21693348,-6.63601577e-01,-1,-0.9964162909150704
1.55594618e+05,6.49999411e-01,-1.09721317e-12,3.72247705,4.66611381e-01,-4.84509847,7.50941886e-01,6.38591564e-05,6.22728668,-6.32742329e-01,-1,-0.9962294937586704
1.63660966e+05,6.49999402e-01,-1.02333880e-12,3.72259032,4.56365519e-01,-4.84509847,7.50941886e-01,6.38591568e-05,6.23727556,-6.02744401e-01,-1,-0.9960325489625833
1.72156997e+05,6.49999394e-01,-9.55354874e-13,3.72268631,4.46289935e-01,-4.84509847,7.50941886e-01,6.38591568e-05,6.24710332,-5.73230232e-01,-1,-0.9958251131945203
1.81114057e+05,6.49999386e-01,-8.92679078e-13,3.72276754,4.36375075e-01,-4.84509847,7.50941886e-01,6.38591568e-05,6.25677707,-5.44172240e-01,-1,-0.995606421122812
1.90547882e+05,6.49999378e-01,-8.35043684e-13,3.72283173,4.26608215e-01,-4.84509847,7.50941886e-01,6.38591568e-05,6.26630866,-5.15537282e-01,-1,-0.9953760885434407
2.00484179e+05,6.49999370e-01,-7.81659912e-13,3.72287770,4.16980536e-01,-4.84509847,7.50941886e-01,6.38591568e-05,6.27570696,-4.87301492e-01,-1,-0.9951334878043546
2.10955635e+05,6.49999362e-01,-7.32233374e-13,3.72291023,4.07483230e-01,-4.84509847,7.50941886e-01,6.38591568e-05,6.28498100,-4.59439692e-01,-1,-0.9948778208325534
2.21986299e+05,6.49999354e-01,-6.86439068e-13,3.72292723,3.98107102e-01,-4.84509847,7.50941886e-01,6.38591568e-05,6.29414057,-4.31916261e-01,-1,-0.9946085004570643
2.33604541e+05,6.49999347e-01,-6.43905477e-13,3.72292767,3.88844990e-01,-4.84509847,7.50941886e-01,6.38591568e-05,6.30319152,-4.04719366e-01,-1,-0.9943248340070698
2.45841459e+05,6.49999339e-01,-6.04372697e-13,3.72291164,3.79690303e-01,-4.84509847,7.50941886e-01,6.38591568e-05,6.31214025,-3.77827744e-01,-1,-0.9940260622059717
2.58729575e+05,6.49999331e-01,-5.67527489e-13,3.72287822,3.70636691e-01,-4.84509847,7.50941886e-01,6.38591568e-05,6.32099339,-3.51219601e-01,-1,-0.993711391009345
2.72304287e+05,6.49999324e-01,-5.33276437e-13,3.72283085,3.61678306e-01,-4.84509847,7.50941886e-01,6.38591568e-05,6.32975611,-3.24883681e-01,-1,-0.9933799561534746
2.86601822e+05,6.49999317e-01,-5.01313905e-13,3.72277004,3.52810759e-01,-4.84509847,7.50941886e-01,6.38591568e-05,6.33843264,-2.98803621e-01,-1,-0.9930308731341053
3.01660080e+05,6.49999309e-01,-4.71452443e-13,3.72269533,3.44029514e-01,-4.84509847,7.50941886e-01,6.38591568e-05,6.34702689,-2.72972956e-01,-1,-0.9926632165996692
3.17518966e+05,6.49999302e-01,-4.43623857e-13,3.72260679,3.35329510e-01,-4.84509847,7.50941886e-01,6.38591569e-05,6.35554290,-2.47375743e-01,-1,-0.9922760122453023
3.34220064e+05,6.49999295e-01,-4.17586987e-13,3.72250638,3.26705282e-01,-4.84509847,7.50941886e-01,6.38591569e-05,6.36398689,-2.21989979e-01,-1,-0.9918682447723343
3.51807641e+05,6.49999288e-01,-3.93168270e-13,3.72238918,3.18153328e-01,-4.84509847,7.50941886e-01,6.38591569e-05,6.37236327,-1.96807001e-01,-1,-0.9914388333750166
3.70339126e+05,6.49999281e-01,-3.70403869e-13,3.72226532,3.09669497e-01,-4.84509847,7.50941886e-01,6.38591570e-05,6.38067568,-1.71815570e-01,-1,-0.9909863758893593
3.89852476e+05,6.49999274e-01,-3.49032328e-13,3.72212387,3.01252228e-01,-4.84509847,7.50941886e-01,6.38591571e-05,6.38892410,-1.47015076e-01,-1,-0.9905099455721048
4.10399719e+05,6.49999267e-01,-3.29001886e-13,3.72197103,2.92897343e-01,-4.84509847,7.50941886e-01,6.38591571e-05,6.39711231,-1.22391100e-01,-1,-0.9900082721279654
4.32032316e+05,6.49999260e-01,-3.10184735e-13,3.72180331,2.84601924e-01,-4.84509847,7.50941886e-01,6.38591573e-05,6.40524371,-9.79371357e-02,-1,-0.989480099105304
4.54821621e+05,6.49999254e-01,-2.92561075e-13,3.72162372,2.76363699e-01,-4.84509847,7.50941886e-01,6.38591574e-05,6.41332072,-7.36439842e-02,-1,-0.9889236843527801
4.78824311e+05,6.49999247e-01,-2.75977561e-13,3.72143225,2.68179889e-01,-4.84509847,7.50941886e-01,6.38591576e-05,6.42134584,-4.95070937e-02,-1,-0.9883376440669417
5.04093177e+05,6.49999240e-01,-2.60433864e-13,3.72122808,2.60047837e-01,-4.84509847,7.50941886e-01,6.38591578e-05,6.42932194,-2.55151234e-02,-1,-0.9877206893233921
5.30701419e+05,6.49999233e-01,-2.45805862e-13,3.72101241,2.51966172e-01,-4.84509847,7.50941886e-01,6.38591582e-05,6.43724974,-1.66428300e-03,-1,-0.9870710328995773
5.58737190e+05,6.49999227e-01,-2.32057606e-13,3.72078549,2.43933339e-01,-4.84509847,7.50941886e-01,6.38591586e-05,6.44513142,2.20521028e-02,-1,-0.9863865224863471
5.88246227e+05,6.49999220e-01,-2.19118570e-13,3.72054576,2.35946367e-01,-4.84509847,7.50941886e-01,6.38591591e-05,6.45296991,4.56381051e-02,-1,-0.985666041387008
6.19323872e+05,6.49999214e-01,-2.06930684e-13,3.72029115,2.28004004e-01,-4.84509847,7.50941886e-01,6.38591597e-05,6.46076525,6.90946164e-02,-1,-0.9849072617685993
6.52060422e+05,6.49999207e-01,-1.95478104e-13,3.72002889,2.20103684e-01,-4.84509847,7.50941886e-01,6.38591606e-05,6.46852024,9.24343960e-02,-1,-0.9841079789749057
6.86510249e+05,6.49999201e-01,-1.84658977e-13,3.71975158,2.12244278e-01,-4.84509847,7.50941886e-01,6.38591617e-05,6.47623650,1.15659016e-01,-1,-0.9832668654804532
