star_age,star_mass,star_mdot,log_Teff,log_R,log_surf_z,surface_h1,surface_he3,log_center_T,log_center_Rho,phase,x
1.16121323e+02,7.49979496e+01,-8.35540868e-06,4.07541839,2.28330757,-1.34509850,6.38455371e-01,5.25064651e-05,6.64790013,-2.60424250,-1,-1.0
1.19316828e+02,7.49979243e+01,-8.25352326e-06,4.07640010,2.28008980,-1.34509850,6.38455371e-01,5.25064651e-05,6.64916462,-2.60040735,-1,-0.9997346978931806
1.22512333e+02,7.49978990e+01,-8.15163784e-06,4.07738181,2.27687202,-1.34509850,6.38455371e-01,5.25064651e-05,6.65042912,-2.59657220,-1,-0.9994693957863613
1.25707839e+02,7.49978738e+01,-8.04975241e-06,4.07836352,2.27365425,-1.34509850,6.38455371e-01,5.25064651e-05,6.65169361,-2.59273706,-1,-0.9992040935965183
1.28903344e+02,7.49978485e+01,-7.94786699e-06,4.07934523,2.27043648,-1.34509850,6.38455371e-01,5.25064651e-05,6.65295811,-2.58890191,-1,-0.998938791489699
1.32319364e+02,7.49978222e+01,-7.86131124e-06,4.08046379,2.26701952,-1.34509850,6.38455371e-01,5.25064651e-05,6.65428994,-2.58485748,-1,-0.9986551814490521
1.35905271e+02,7.49977952e+01,-7.78656561e-06,4.08168777,2.26344912,-1.34509850,6.38455371e-01,5.25064651e-05,6.65567365,-2.58065180,-1,-0.9983574667898798
1.39491178e+02,7.49977681e+01,-7.71181997e-06,4.08291176,2.25987871,-1.34509850,6.38455371e-01,5.25064651e-05,6.65705735,-2.57644612,-1,-0.9980597521307075
1.43077085e+02,7.49977410e+01,-7.63707433e-06,4.08413575,2.25630831,-1.34509850,6.38455371e-01,5.25064651e-05,6.65844106,-2.57224045,-1,-0.9977620374715352
1.46662992e+02,7.49977140e+01,-7.56232869e-06,4.08535974,2.25273790,-1.34509850,6.38455371e-01,5.25064651e-05,6.65982477,-2.56803477,-1,-0.997464322812363
1.50642987e+02,7.49976849e+01,-7.50070797e-06,4.08660863,2.24910698,-1.34509850,6.38455372e-01,5.25064651e-05,6.66132342,-2.56347119,-1,-0.9971338895761043
1.54708271e+02,7.49976554e+01,-7.44192776e-06,4.08786291,2.24546297,-1.34509850,6.38455372e-01,5.25064651e-05,6.66284696,-2.55883014,-1,-0.9967963753459532
1.58773554e+02,7.49976259e+01,-7.38314755e-06,4.08911719,2.24181896,-1.34509850,6.38455372e-01,5.25064650e-05,6.66437049,-2.55418910,-1,-0.9964588611988255
1.62838838e+02,7.49975964e+01,-7.32436734e-06,4.09037147,2.23817495,-1.34509850,6.38455372e-01,5.25064650e-05,6.66589403,-2.54954806,-1,-0.9961213469686744
1.66904122e+02,7.49975670e+01,-7.26558712e-06,4.09162575,2.23453093,-1.34509850,6.38455372e-01,5.25064650e-05,6.66741756,-2.54490701,-1,-0.9957838327385232
1.71369100e+02,7.49975357e+01,-7.19165609e-06,4.09283570,2.23096158,-1.34509850,6.38455372e-01,5.25064650e-05,6.66905827,-2.53990159,-1,-0.9954131345013738
1.75932822e+02,7.49975039e+01,-7.11398205e-06,4.09403470,2.22741068,-1.34509850,6.38455372e-01,5.25064650e-05,6.67072794,-2.53480615,-1,-0.995034238188729
1.80496544e+02,7.49974722e+01,-7.03630802e-06,4.09523369,2.22385978,-1.34509850,6.38455372e-01,5.25064650e-05,6.67239760,-2.52971071,-1,-0.9946553418760843
1.85060266e+02,7.49974405e+01,-6.95863398e-06,4.09643269,2.22030888,-1.34509850,6.38455372e-01,5.25064650e-05,6.67406726,-2.52461527,-1,-0.9942764455634395
1.90071385e+02,7.49974067e+01,-6.90141218e-06,4.09777727,2.21655540,-1.34509850,6.38455372e-01,5.25064650e-05,6.67585725,-2.51914323,-1,-0.9938604047723212
1.95123384e+02,7.49973728e+01,-6.84605916e-06,4.09913515,2.21278341,-1.34509850,6.38455373e-01,5.25064650e-05,6.67765824,-2.51363678,-1,-0.9934409699792761
2.00175383e+02,7.49973388e+01,-6.79070614e-06,4.10049303,2.20901142,-1.34509850,6.38455373e-01,5.25064650e-05,6.67945922,-2.50813033,-1,-0.993021535186231
2.05227383e+02,7.49973049e+01,-6.73535311e-06,4.10185091,2.20523942,-1.34509851,6.38455373e-01,5.25064650e-05,6.68126021,-2.50262388,-1,-0.9926021003101625
2.10698808e+02,7.49972690e+01,-6.68684980e-06,4.10324384,2.20142615,-1.34509851,6.38455373e-01,5.25064650e-05,6.68317030,-2.49677559,-1,-0.9921478432898154
2.16346419e+02,7.49972322e+01,-6.64122379e-06,4.10465150,2.19759553,-1.34509851,6.38455373e-01,5.25064650e-05,6.68512624,-2.49078369,-1,-0.9916789586857242
2.21994030e+02,7.49971954e+01,-6.59559778e-06,4.10605916,2.19376492,-1.34509851,6.38455373e-01,5.25064650e-05,6.68708217,-2.48479180,-1,-0.9912100740816331
2.27641641e+02,7.49971586e+01,-6.54997177e-06,4.10746683,2.18993430,-1.34509851,6.38455374e-01,5.25064649e-05,6.68903811,-2.47879991,-1,-0.990741189477542
2.33402619e+02,7.49971213e+01,-6.50241942e-06,4.10886845,2.18611947,-1.34509851,6.38455374e-01,5.25064649e-05,6.69102409,-2.47271412,-1,-0.990262892744869
2.39670553e+02,7.49970817e+01,-6.44625287e-06,4.11024308,2.18237520,-1.34509851,6.38455374e-01,5.25064649e-05,6.69314445,-2.46620845,-1,-0.9897425067352696
2.45938488e+02,7.49970422e+01,-6.39008633e-06,4.11161771,2.17863094,-1.34509851,6.38455374e-01,5.25064649e-05,6.69526481,-2.45970278,-1,-0.9892221206426467
2.52206422e+02,7.49970026e+01,-6.33391978e-06,4.11299234,2.17488667,-1.34509851,6.38455374e-01,5.25064649e-05,6.69738518,-2.45319711,-1,-0.9887017346330473
2.58864994e+02,7.49969612e+01,-6.28907679e-06,4.11444038,2.17106414,-1.34509851,6.38455374e-01,5.25064649e-05,6.69960047,-2.44639320,-1,-0.9881489164775419
2.65744010e+02,7.49969188e+01,-6.25062392e-06,4.11592984,2.16719745,-1.34509851,6.38455375e-01,5.25064649e-05,6.70186934,-2.43942100,-1,-0.9875777962828796
2.72623027e+02,7.49968764e+01,-6.21217105e-06,4.11741930,2.16333075,-1.34509851,6.38455375e-01,5.25064649e-05,6.70413821,-2.43244879,-1,-0.9870066760051938
2.79502044e+02,7.49968340e+01,-6.17371819e-06,4.11890876,2.15946405,-1.34509851,6.38455375e-01,5.25064648e-05,6.70640708,-2.42547658,-1,-0.986435555727508
2.86949086e+02,7.49967888e+01,-6.14156113e-06,4.12043590,2.15559776,-1.34509852,6.38455376e-01,5.25064648e-05,6.70881116,-2.41808027,-1,-0.9858172760089119
2.94570825e+02,7.49967428e+01,-6.11134036e-06,4.12197464,2.15173159,-1.34509852,6.38455376e-01,5.25064648e-05,6.71125684,-2.41055353,-1,-0.9851844923286086
3.02192563e+02,7.49966968e+01,-6.08111958e-06,4.12351337,2.14786543,-1.34509852,6.38455377e-01,5.25064648e-05,6.71370251,-2.40302679,-1,-0.9845517087313289
3.09814301e+02,7.49966508e+01,-6.05089880e-06,4.12505210,2.14399926,-1.34509852,6.38455377e-01,5.25064647e-05,6.71614818,-2.39550005,-1,-0.9839189251340492
3.17871034e+02,7.49966026e+01,-6.01952337e-06,4.12659513,2.14017138,-1.34509852,6.38455377e-01,5.25064647e-05,6.71870052,-2.38764028,-1,-0.9832500267161212
3.26257931e+02,7.49965529e+01,-5.98727156e-06,4.12814144,2.13637254,-1.34509852,6.38455378e-01,5.25064647e-05,6.72133383,-2.37952775,-1,-0.9825537169172702
3.34644829e+02,7.49965031e+01,-5.95501975e-06,4.12968774,2.13257371,-1.34509852,6.38455378e-01,5.25064647e-05,6.72396714,-2.37141522,-1,-0.9818574070353957
3.43217587e+02,7.49964524e+01,-5.92547433e-06,4.13124865,2.12877673,-1.34509853,6.38455379e-01,5.25064646e-05,6.72664429,-2.36316591,-1,-0.9811456664001432
3.52290622e+02,7.49963992e+01,-5.90321367e-06,4.13284888,2.12498472,-1.34509853,6.38455379e-01,5.25064646e-05,6.72943948,-2.35454844,-1,-0.9803923910021244
3.61363657e+02,7.49963460e+01,-5.88095300e-06,4.13444911,2.12119271,-1.34509853,6.38455380e-01,5.25064645e-05,6.73223467,-2.34593097,-1,-0.9796391156041057
3.70671575e+02,7.49962915e+01,-5.86231602e-06,4.13607242,2.11740311,-1.34509853,6.38455381e-01,5.25064645e-05,6.73508271,-2.33714904,-1,-0.9788663393901732
3.80478417e+02,7.49962343e+01,-5.85137627e-06,4.13774473,2.11361865,-1.34509854,6.38455383e-01,5.25064644e-05,6.73804302,-2.32801778,-1,-0.9780521407443113
3.90285260e+02,7.49961772e+01,-5.84043652e-06,4.13941705,2.10983419,-1.34509854,6.38455384e-01,5.25064643e-05,6.74100334,-2.31888651,-1,-0.977237942015426
4.00130864e+02,7.49961198e+01,-5.82989630e-06,4.14109241,2.10605204,-1.34509855,6.38455386e-01,5.25064641e-05,6.74397232,-2.30972838,-1,-0.976420525211475
4.10816759e+02,7.49960575e+01,-5.82801757e-06,4.14283373,2.10231974,-1.34509856,6.38455393e-01,5.25064636e-05,6.74712916,-2.29998777,-1,-0.9755333444820595
4.21502654e+02,7.49959953e+01,-5.82613885e-06,4.14457505,2.09858745,-1.34509857,6.38455400e-01,5.25064631e-05,6.75028601,-2.29024715,-1,-0.9746461637526441
4.32188549e+02,7.49959331e+01,-5.82426012e-06,4.14631638,2.09485515,-1.34509859,6.38455407e-01,5.25064625e-05,6.75344286,-2.28050654,-1,-0.9737589830232287
4.43269005e+02,7.49958684e+01,-5.82868714e-06,4.14808162,2.09115121,-1.34509860,6.38455409e-01,5.25064625e-05,6.75669162,-2.27048313,-1,-0.972839044446597
4.54859252e+02,7.49958005e+01,-5.84126147e-06,4.14987777,2.08748391,-1.34509860,6.38455405e-01,5.25064629e-05,6.76005912,-2.26009434,-1,-0.9718767812213299
4.66449498e+02,7.49957325e+01,-5.85383580e-06,4.15167393,2.08381660,-1.34509860,6.38455400e-01,5.25064634e-05,6.76342663,-2.24970555,-1,-0.9709145180790864
4.78451779e+02,7.49956618e+01,-5.87216169e-06,4.15350126,2.08017949,-1.34509861,6.38455398e-01,5.25064637e-05,6.76688846,-2.23902843,-1,-0.9699180463364547
4.90862350e+02,7.49955883e+01,-5.89618687e-06,4.15535949,2.07657228,-1.34509861,6.38455397e-01,5.25064638e-05,6.77044375,-2.22806561,-1,-0.9688876769165566
5.03272921e+02,7.49955148e+01,-5.92021206e-06,4.15721772,2.07296508,-1.34509861,6.38455396e-01,5.25064639e-05,6.77399904,-2.21710278,-1,-0.9678573074966585
5.16443455e+02,7.49954357e+01,-5.94968047e-06,4.15912846,2.06944389,-1.34509862,6.38455398e-01,5.25064638e-05,6.77772310,-2.20562763,-1,-0.9667638432654536
5.29730984e+02,7.49953558e+01,-5.97998685e-06,4.16104728,2.06593594,-1.34509863,6.38455401e-01,5.25064637e-05,6.78147313,-2.19407360,-1,-0.9656606656962983
5.43018512e+02,7.49952759e+01,-6.01029323e-06,4.16296611,2.06242799,-1.34509864,6.38455403e-01,5.25064635e-05,6.78522317,-2.18251958,-1,-0.9645574882101665
5.57252657e+02,7.49951885e+01,-6.05327542e-06,4.16495784,2.05900055,-1.34509865,6.38455406e-01,5.25064634e-05,6.78918375,-2.17033177,-1,-0.9633757192386667
5.71577571e+02,7.49951002e+01,-6.09747306e-06,4.16695657,2.05558082,-1.34509866,6.38455409e-01,5.25064633e-05,6.79316453,-2.15808320,-1,-0.9621864143043273
5.85902485e+02,7.49950120e+01,-6.14167070e-06,4.16895530,2.05216109,-1.34509867,6.38455412e-01,5.25064631e-05,6.79714530,-2.14583462,-1,-0.9609971093699878
6.00859495e+02,7.49949178e+01,-6.21063570e-06,4.17104445,2.04868969,-1.34509868,6.38455412e-01,5.25064631e-05,6.80127033,-2.13315333,-1,-0.9597553255941156
6.16196877e+02,7.49948199e+01,-6.29450473e-06,4.17318802,2.04518720,-1.34509867,6.38455411e-01,5.25064632e-05,6.80548217,-2.12021165,-1,-0.9584819619919013
6.31534259e+02,7.49947220e+01,-6.37837375e-06,4.17533159,2.04168471,-1.34509867,6.38455409e-01,5.25064632e-05,6.80969401,-2.10726997,-1,-0.9572085983896871
6.47744730e+02,7.49946150e+01,-6.47526814e-06,4.17758047,2.03814989,-1.34509866,6.38455409e-01,5.25064632e-05,6.81410279,-2.09374197,-1,-0.9558627478562551
6.63983649e+02,7.49945077e+01,-6.57258693e-06,4.17983278,2.03461402,-1.34509866,6.38455409e-01,5.25064632e-05,6.81851798,-2.08019487,-1,-0.9545145354694275
6.80744693e+02,7.49943943e+01,-6.67929660e-06,4.18214547,2.03106371,-1.34509866,6.38455409e-01,5.25064632e-05,6.82305034,-2.06630149,-1,-0.9531229744217395
6.97830348e+02,7.49942772e+01,-6.79184466e-06,4.18449569,2.02750443,-1.34509866,6.38455409e-01,5.25064632e-05,6.82765553,-2.05219284,-1,-0.9517044630227934
7.15285828e+02,7.49941555e+01,-6.91173721e-06,4.18688316,2.02394385,-1.34509866,6.38455409e-01,5.25064632e-05,6.83234310,-2.03784229,-1,-0.9502552474466816
7.33194999e+02,7.49940280e+01,-7.04063973e-06,4.18931634,2.02038170,-1.34509866,6.38455409e-01,5.25064632e-05,6.83713173,-2.02319501,-1,-0.9487683648419951
7.51475909e+02,7.49938957e+01,-7.16697461e-06,4.19176822,2.01685562,-1.34509867,6.38455413e-01,5.25064629e-05,6.84200181,-2.00831107,-1,-0.9472506191531054
7.70303755e+02,7.49937563e+01,-7.28953176e-06,4.19424762,2.01338264,-1.34509869,6.38455422e-01,5.25064623e-05,6.84699173,-1.99307893,-1,-0.94568746490654
7.89204816e+02,7.49936158e+01,-7.41344499e-06,4.19673571,2.00990610,-1.34509871,6.38455431e-01,5.25064616e-05,6.85199744,-1.97780144,-1,-0.9441182320921894
8.09063377e+02,7.49934614e+01,-7.55509299e-06,4.19933733,2.00638304,-1.34509871,6.38455444e-01,5.25064603e-05,6.85720963,-1.96193078,-1,-0.9424695042473882
8.28921939e+02,7.49933069e+01,-7.69674099e-06,4.20193896,2.00285997,-1.34509871,6.38455458e-01,5.25064589e-05,6.86242183,-1.94606012,-1,-0.9408207763195636
8.49169174e+02,7.49931450e+01,-7.87640941e-06,4.20462701,1.99922713,-1.34509868,6.38455452e-01,5.25064591e-05,6.86771805,-1.92994845,-1,-0.9391397793870703
8.69961958e+02,7.49929728e+01,-8.10944381e-06,4.20743635,1.99544018,-1.34509862,6.38455419e-01,5.25064616e-05,6.87313220,-1.91349848,-1,-0.937413489050538
8.90980147e+02,7.49927961e+01,-8.34623496e-06,4.21027828,1.99162277,-1.34509857,6.38455393e-01,5.25064635e-05,6.87859481,-1.89691069,-1,-0.9356684847951142
9.12621469e+02,7.49926068e+01,-8.59341167e-06,4.21321030,1.98772113,-1.34509856,6.38455389e-01,5.25064638e-05,6.88419139,-1.87994188,-1,-0.9338717458380615
9.34572038e+02,7.49924109e+01,-8.84796676e-06,4.21616566,1.98381775,-1.34509855,6.38455386e-01,5.25064640e-05,6.88985410,-1.86278501,-1,-0.9320493321032735
9.57044185e+02,7.49922039e+01,-9.11496624e-06,4.21916039,1.97991142,-1.34509854,6.38455384e-01,5.25064641e-05,6.89562836,-1.84531094,-1,-0.9301836151214959
9.80047911e+02,7.49919850e+01,-9.39426579e-06,4.22217283,1.97604208,-1.34509853,6.38455382e-01,5.25064642e-05,6.90151630,-1.82751550,-1,-0.9282737645744006
1.00335663e+03,7.49917593e+01,-9.68023890e-06,4.22519544,1.97219387,-1.34509853,6.38455381e-01,5.25064643e-05,6.90746941,-1.80953586,-1,-0.9263385924316686
1.02754981e+03,7.49915135e+01,-9.93596097e-06,4.22824986,1.96839722,-1.34509853,6.38455380e-01,5.25064643e-05,6.91360504,-1.79104780,-1,-0.92432998921413
1.05185901e+03,7.49912647e+01,-1.01948014e-05,4.23131707,1.96458716,-1.34509852,6.38455379e-01,5.25064644e-05,6.91976343,-1.77249762,-1,-0.9223117536065832
1.07701869e+03,7.49909936e+01,-1.04765009e-05,4.23447814,1.96067877,-1.34509852,6.38455379e-01,5.25064644e-05,6.92608872,-1.75349204,-1,-0.9202229081468198
1.10217836e+03,7.49907225e+01,-1.07582004e-05,4.23763921,1.95677038,-1.34509852,6.38455378e-01,5.25064644e-05,6.93241401,-1.73448646,-1,-0.9181340635172917
1.12816254e+03,7.49904232e+01,-1.11887223e-05,4.24094948,1.95262968,-1.34509851,6.38455377e-01,5.25064645e-05,6.93890003,-1.71504038,-1,-0.9159767651566337
1.15431620e+03,7.49901179e+01,-1.16293501e-05,4.24428671,1.94844819,-1.34509851,6.38455376e-01,5.25064645e-05,6.94541825,-1.69550639,-1,-0.9138053959680273
1.18112901e+03,7.49897888e+01,-1.20752893e-05,4.24772266,1.94411958,-1.34509851,6.38455376e-01,5.25064646e-05,6.95206038,-1.67563490,-1,-0.9115793018192941
1.20834709e+03,7.49894442e+01,-1.25325246e-05,4.25121090,1.93971348,-1.34509851,6.38455375e-01,5.25064646e-05,6.95877708,-1.65556116,-1,-0.9093195607243566
1.23593961e+03,7.49890851e+01,-1.30005131e-05,4.25474680,1.93523650,-1.34509850,6.38455375e-01,5.25064646e-05,6.96556249,-1.63530132,-1,-0.9070287322986599
1.26419526e+03,7.49886990e+01,-1.34914716e-05,4.25835886,1.93064293,-1.34509850,6.38455375e-01,5.25064646e-05,6.97246696,-1.61472127,-1,-0.904682848479185
1.29291976e+03,7.49882932e+01,-1.40004868e-05,4.26201171,1.92598698,-1.34509850,6.38455375e-01,5.25064646e-05,6.97945372,-1.59392004,-1,-0.9022980390774368
1.32213069e+03,7.49878672e+01,-1.45278891e-05,4.26568934,1.92129977,-1.34509850,6.38455374e-01,5.25064646e-05,6.98652669,-1.57288522,-1,-0.8998728445397493
1.35192503e+03,7.49874174e+01,-1.50768986e-05,4.26937417,1.91661803,-1.34509850,6.38455374e-01,5.25064646e-05,6.99370408,-1.55156503,-1,-0.8973992132441345
1.38244484e+03,7.49869347e+01,-1.55607856e-05,4.27313397,1.91179140,-1.34509850,6.38455374e-01,5.25064646e-05,7.00099330,-1.52995435,-1,-0.8948653508678506
1.41338075e+03,7.49864325e+01,-1.60556894e-05,4.27692807,1.90688895,-1.34509849,6.38455374e-01,5.25064646e-05,7.00834451,-1.50818310,-1,-0.892296942400527
1.44486055e+03,7.49859047e+01,-1.65692545e-05,4.28076622,1.90188805,-1.34509849,6.38455374e-01,5.25064646e-05,7.01577653,-1.48620253,-1,-0.8896833782652017
1.47680081e+03,7.49853464e+01,-1.72392861e-05,4.28469183,1.89669549,-1.34509849,6.38455374e-01,5.25064646e-05,7.02327059,-1.46406322,-1,-0.887031585115024
1.50911095e+03,7.49847636e+01,-1.80049835e-05,4.28868536,1.89135374,-1.34509849,6.38455374e-01,5.25064646e-05,7.03081371,-1.44179887,-1,-0.8843490832213862
1.54200926e+03,7.49841410e+01,-1.87559484e-05,4.29277396,1.88580116,-1.34509849,6.38455374e-01,5.25064646e-05,7.03843054,-1.41934940,-1,-0.8816177493778161
1.57539887e+03,7.49834842e+01,-1.95155396e-05,4.29693411,1.88008383,-1.34509849,6.38455374e-01,5.25064646e-05,7.04610523,-1.39675457,-1,-0.8788456260737132
1.60924375e+03,7.49827946e+01,-2.02873830e-05,4.30115789,1.87421507,-1.34509849,6.38455374e-01,5.25064646e-05,7.05383121,-1.37403175,-1,-0.8760357046468811
1.64356702e+03,7.49820696e+01,-2.10754924e-05,4.30544608,1.86818789,-1.34509849,6.38455374e-01,5.25064645e-05,7.06160822,-1.35118288,-1,-0.8731860655932947
1.67838276e+03,7.49813071e+01,-2.18829013e-05,4.30979817,1.86199776,-1.34509849,6.38455374e-01,5.25064645e-05,7.06943422,-1.32821405,-1,-0.8702955399416448
1.71370187e+03,7.49805049e+01,-2.27114679e-05,4.31421343,1.85564066,-1.34509849,6.38455375e-01,5.25064645e-05,7.07730738,-1.30512827,-1,-0.8673632227354486
1.74959823e+03,7.49796554e+01,-2.35648185e-05,4.31869823,1.84909243,-1.34509849,6.38455375e-01,5.25064645e-05,7.08523045,-1.28191794,-1,-0.8643829801962735
1.78618428e+03,7.49787584e+01,-2.44439771e-05,4.32319243,1.84248635,-1.34509849,6.38455375e-01,5.25064645e-05,7.09323355,-1.25849566,-1,-0.8613454771583502
1.82327111e+03,7.49778165e+01,-2.52214143e-05,4.32776893,1.83564413,-1.34509849,6.38455375e-01,5.25064644e-05,7.10125681,-1.23503609,-1,-0.8582663975968248
1.86091014e+03,7.49768308e+01,-2.59831218e-05,4.33239120,1.82864491,-1.34509849,6.38455375e-01,5.25064644e-05,7.10931535,-1.21149051,-1,-0.8551414724417592
1.89900339e+03,7.49758109e+01,-2.67580905e-05,4.33703785,1.82154808,-1.34509849,6.38455376e-01,5.25064644e-05,7.11740760,-1.18785877,-1,-0.8519788363386713
1.93767978e+03,7.49747220e+01,-2.78739366e-05,4.34179265,1.81415730,-1.34509849,6.38455376e-01,5.25064644e-05,7.12551631,-1.16419400,-1,-0.8487677858940099
1.97682450e+03,7.49735846e+01,-2.89520235e-05,4.34659821,1.80661560,-1.34509849,6.38455376e-01,5.25064643e-05,7.13364664,-1.14047822,-1,-0.8455178530393109
2.01650917e+03,7.49723922e+01,-3.00017342e-05,4.35145352,1.79891642,-1.34509849,6.38455376e-01,5.25064643e-05,7.14180198,-1.11670083,-1,-0.8422230916293204
2.05676668e+03,7.49711418e+01,-3.10406997e-05,4.35635533,1.79105954,-1.34509849,6.38455377e-01,5.25064643e-05,7.14998205,-1.09286154,-1,-0.8388807710201202
2.09760821e+03,7.49698315e+01,-3.20774657e-05,4.36130240,1.78304197,-1.34509849,6.38455377e-01,5.25064642e-05,7.15818340,-1.06896912,-1,-0.8354899630086394
2.13910239e+03,7.49684573e+01,-3.30323857e-05,4.36629060,1.77485883,-1.34509849,6.38455378e-01,5.25064642e-05,7.16640451,-1.04502712,-1,-0.83204496968998
2.18121004e+03,7.49670250e+01,-3.39045115e-05,4.37131325,1.76652451,-1.34509849,6.38455378e-01,5.25064641e-05,7.17463897,-1.02105335,-1,-0.8285490439260669
2.22387848e+03,7.49655376e+01,-3.47808244e-05,4.37637158,1.75804087,-1.34509849,6.38455378e-01,5.25064641e-05,7.18287991,-9.97067410e-01,-1,-0.8250065593964866
2.26716273e+03,7.49639716e+01,-3.60003741e-05,4.38149168,1.74936244,-1.34509849,6.38455379e-01,5.25064640e-05,7.19112337,-9.73079004e-01,-1,-0.8214129481465913
2.31097956e+03,7.49623405e+01,-3.71833920e-05,4.38665642,1.74053402,-1.34509849,6.38455379e-01,5.25064640e-05,7.19936797,-9.49091541e-01,-1,-0.817775120224824
2.35539198e+03,7.49606390e+01,-3.83160327e-05,4.39186191,1.73155482,-1.34509849,6.38455380e-01,5.25064639e-05,7.20761501,-9.25098529e-01,-1,-0.8140878443185284
2.40044499e+03,7.49588643e+01,-3.94227538e-05,4.39710215,1.72243245,-1.34509849,6.38455380e-01,5.25064639e-05,7.21586637,-9.01096252e-01,-1,-0.810347384368832
