star_age,star_mass,star_mdot,log_Teff,log_R,log_surf_z,surface_h1,surface_he3,log_center_T,log_center_Rho,phase,x
7.65814078e+03,3.39999976e-01,-2.50789690e-12,3.55598239,7.14171327e-01,-1.84509847,7.15399992e-01,4.48623608e-05,5.73898659,-1.58166564,-1,-1.0
8.06481463e+03,3.39999975e-01,-2.46875687e-12,3.55600884,7.11858427e-01,-1.84509847,7.15399992e-01,4.48623618e-05,5.74112998,-1.57526893,-1,-0.999997925901775
8.49244645e+03,3.39999974e-01,-2.42883937e-12,3.55603515,7.09464339e-01,-1.84509847,7.15399992e-01,4.48623629e-05,5.74334939,-1.56864519,-1,-0.999995744914729
8.94242678e+03,3.39999973e-01,-2.38816961e-12,3.55606101,7.06986459e-01,-1.84509847,7.15399992e-01,4.48623642e-05,5.74564707,-1.56178733,-1,-0.9999934499468973
9.41588899e+03,3.39999972e-01,-2.34678128e-12,3.55608603,7.04423469e-01,-1.84509847,7.15399992e-01,4.48623657e-05,5.74802419,-1.55469128,-1,-0.9999910352179214
9.91399032e+03,3.39999971e-01,-2.30466120e-12,3.55611060,7.01774181e-01,-1.84509847,7.15399992e-01,4.48623675e-05,5.75048223,-1.54735282,-1,-0.999988494825702
1.04387654e+04,3.39999970e-01,-2.26179811e-12,3.55613513,6.99034879e-01,-1.84509847,7.15399992e-01,4.48623695e-05,5.75302446,-1.53976231,-1,-0.9999858183933178
1.09920187e+04,3.39999969e-01,-2.21847567e-12,3.55615753,6.96203307e-01,-1.84509847,7.15399992e-01,4.48623719e-05,5.75565308,-1.53191234,-1,-0.9999829967176986
1.15738839e+04,3.39999967e-01,-2.17461553e-12,3.55618030,6.93282619e-01,-1.84509847,7.15399992e-01,4.48623747e-05,5.75836548,-1.52381221,-1,-0.9999800291170563
1.21862114e+04,3.39999966e-01,-2.13002002e-12,3.55620064,6.90270516e-01,-1.84509847,7.15399992e-01,4.48623780e-05,5.76116381,-1.51545451,-1,-0.9999769061540704
1.28294712e+04,3.39999965e-01,-2.08523566e-12,3.55621944,6.87169691e-01,-1.84509847,7.15399992e-01,4.48623819e-05,5.76404545,-1.50684736,-1,-0.99997362543167
1.35065810e+04,3.39999963e-01,-2.04020410e-12,3.55623648,6.83975847e-01,-1.84509847,7.15399992e-01,4.48623865e-05,5.76701452,-1.49797806,-1,-0.9999701720691431
1.42216422e+04,3.39999962e-01,-1.99462027e-12,3.55625039,6.80682413e-01,-1.84509847,7.15399992e-01,4.48623921e-05,5.77007748,-1.48883001,-1,-0.9999665251487284
1.49715472e+04,3.39999961e-01,-1.94868375e-12,3.55626498,6.77301611e-01,-1.84509847,7.15399992e-01,4.48623986e-05,5.77322271,-1.47943534,-1,-0.9999627005196567
1.57618716e+04,3.39999959e-01,-1.90274214e-12,3.55627578,6.73822096e-01,-1.84509847,7.15399992e-01,4.48624064e-05,5.77645219,-1.46977627,-1,-0.9999586697455236
1.65937665e+04,3.39999957e-01,-1.85646055e-12,3.55628428,6.70231076e-01,-1.84509847,7.15399992e-01,4.48624159e-05,5.77972908,-1.45990269,-1,-0.9999544269555447
1.74678852e+04,3.39999956e-01,-1.80969049e-12,3.55629651,6.66534108e-01,-1.84509847,7.15399992e-01,4.48624272e-05,5.78315327,-1.44965055,-1,-0.9999499688177912
1.83895706e+04,3.39999954e-01,-1.76287799e-12,3.55629945,6.62756340e-01,-1.84509847,7.15399992e-01,4.48624411e-05,5.78663460,-1.43920385,-1,-0.9999452680826637
1.93579998e+04,3.39999953e-01,-1.71657827e-12,3.55630124,6.58899090e-01,-1.84509847,7.15399992e-01,4.48624577e-05,5.79022680,-1.42846362,-1,-0.999940328947077
2.03773140e+04,3.39999951e-01,-1.67022669e-12,3.55629787,6.54938656e-01,-1.84509847,7.15399992e-01,4.48624781e-05,5.79391304,-1.41743742,-1,-0.9999351302902838
2.14506658e+04,3.39999949e-01,-1.62414014e-12,3.55628937,6.50886657e-01,-1.84509847,7.15399992e-01,4.48625030e-05,5.79769263,-1.40613649,-1,-0.9999296560335467
2.25778453e+04,3.39999947e-01,-1.57799092e-12,3.55627715,6.46734397e-01,-1.84509847,7.15399992e-01,4.48625332e-05,5.80156452,-1.39455518,-1,-0.9999239072473876
2.37651735e+04,3.39999945e-01,-1.53227783e-12,3.55626046,6.42515708e-01,-1.84509847,7.15399992e-01,4.48625705e-05,5.80550354,-1.38277653,-1,-0.999917851693749
2.50153905e+04,3.39999944e-01,-1.48701584e-12,3.55623681,6.38197830e-01,-1.84509847,7.15399992e-01,4.48626167e-05,5.80953578,-1.37071508,-1,-0.9999114753977061
2.63297532e+04,3.39999942e-01,-1.44207314e-12,3.55621735,6.33796799e-01,-1.84509847,7.15399992e-01,4.48626735e-05,5.81364824,-1.35841236,-1,-0.9999047719488784
2.77118489e+04,3.39999940e-01,-1.39781475e-12,3.55619038,6.29310931e-01,-1.84509847,7.15399992e-01,4.48627438e-05,5.81784228,-1.34586590,-1,-0.9998977230514926
2.91655650e+04,3.39999938e-01,-1.35387916e-12,3.55616667,6.24733845e-01,-1.84509847,7.15399992e-01,4.48628310e-05,5.82212338,-1.33305775,-1,-0.9998903088792201
3.06947098e+04,3.39999936e-01,-1.31053567e-12,3.55612440,6.20068621e-01,-1.84509847,7.15399992e-01,4.48629396e-05,5.82648894,-1.31999353,-1,-0.9998825100091541
3.23034687e+04,3.39999934e-01,-1.26774554e-12,3.55607665,6.15332942e-01,-1.84509847,7.15399992e-01,4.48630752e-05,5.83092347,-1.30672217,-1,-0.9998743050951207
3.39956111e+04,3.39999932e-01,-1.22557805e-12,3.55601995,6.10494559e-01,-1.84509847,7.15399992e-01,4.48632451e-05,5.83545639,-1.29315726,-1,-0.999865674912609
3.57759875e+04,3.39999929e-01,-1.18403035e-12,3.55595413,6.05602304e-01,-1.84509847,7.15399992e-01,4.48634586e-05,5.84004251,-1.27943174,-1,-0.9998565947233344
3.76485738e+04,3.39999927e-01,-1.14330644e-12,3.55588275,6.00615516e-01,-1.84509847,7.15399992e-01,4.48637271e-05,5.84471903,-1.26543421,-1,-0.9998470442496048
3.96182716e+04,3.39999925e-01,-1.10312963e-12,3.55580561,5.95558830e-01,-1.84509847,7.15399991e-01,4.48640660e-05,5.84946411,-1.25123253,-1,-0.999836998492518
4.16896102e+04,3.39999923e-01,-1.06399520e-12,3.55571847,5.90428120e-01,-1.84509847,7.15399991e-01,4.48644941e-05,5.85428044,-1.23681378,-1,-0.9998264343519577
4.38680040e+04,3.39999921e-01,-1.02550550e-12,3.55562304,5.85229624e-01,-1.84509847,7.15399991e-01,4.48650361e-05,5.85916291,-1.22219419,-1,-0.9998153242136641
4.61585966e+04,3.39999918e-01,-9.87973186e-13,3.55551957,5.79966957e-01,-1.84509847,7.15399991e-01,4.48657232e-05,5.86410827,-1.20738522,-1,-0.9998036418444983
4.85661578e+04,3.39999916e-01,-9.51170294e-13,3.55540844,5.74630592e-01,-1.84509847,7.15399991e-01,4.48665943e-05,5.86912527,-1.19235840,-1,-0.9997913629177578
5.10990972e+04,3.39999914e-01,-9.15409964e-13,3.55528837,5.69245694e-01,-1.84509847,7.15399990e-01,4.48677044e-05,5.87419082,-1.17718297,-1,-0.9997784445432091
5.37643794e+04,3.39999911e-01,-8.80497312e-13,3.55515680,5.63780073e-01,-1.84509847,7.15399990e-01,4.48691261e-05,5.87933511,-1.16177127,-1,-0.9997648512003372
5.65657795e+04,3.39999909e-01,-8.46537088e-13,3.55502681,5.58271581e-01,-1.84509847,7.15399989e-01,4.48709359e-05,5.88452274,-1.14622531,-1,-0.9997505636355606
5.95093166e+04,3.39999907e-01,-8.13565674e-13,3.55488155,5.52714520e-01,-1.84509847,7.15399988e-01,4.48732408e-05,5.88975935,-1.13053373,-1,-0.9997355511505576
6.26099574e+04,3.39999904e-01,-7.81614765e-13,3.55473044,5.47094641e-01,-1.84509847,7.15399987e-01,4.48762179e-05,5.89505811,-1.11465625,-1,-0.9997197374128914
6.58666046e+04,3.39999902e-01,-7.50466390e-13,3.55456076,5.41442754e-01,-1.84509847,7.15399986e-01,4.48800125e-05,5.90038977,-1.09867954,-1,-0.9997031280189586
6.92910865e+04,3.39999899e-01,-7.20302308e-13,3.55438300,5.35732750e-01,-1.84509847,7.15399984e-01,4.48848829e-05,5.90577868,-1.08252854,-1,-0.9996856626426374
7.28941666e+04,3.39999897e-01,-6.90993417e-13,3.55419135,5.29988742e-01,-1.84509847,7.15399982e-01,4.48911531e-05,5.91120216,-1.06627339,-1,-0.9996672863884478
7.66786219e+04,3.39999894e-01,-6.62695416e-13,3.55398974,5.24212965e-01,-1.84509847,7.15399980e-01,4.48991640e-05,5.91665821,-1.04991694,-1,-0.9996479850932695
8.06641240e+04,3.39999891e-01,-6.35416603e-13,3.55377837,5.18399424e-01,-1.84509847,7.15399976e-01,4.49095408e-05,5.92215279,-1.03343949,-1,-0.9996276584289628
8.48485451e+04,3.39999889e-01,-6.09075081e-13,3.55355785,5.12565043e-01,-1.84509847,7.15399972e-01,4.49227793e-05,5.92767011,-1.01689296,-1,-0.9996063172476304
8.92565892e+04,3.39999886e-01,-5.83766117e-13,3.55332817,5.06717099e-01,-1.84509847,7.15399966e-01,4.49399407e-05,5.93320362,-1.00029577,-1,-0.9995838355551305
9.38848889e+04,3.39999884e-01,-5.59300355e-13,3.55308864,5.00856096e-01,-1.84509847,7.15399959e-01,4.49618245e-05,5.93875265,-9.83650913e-01,-1,-0.9995602305257135
9.87610621e+04,3.39999881e-01,-5.35984406e-13,3.55284618,4.95011985e-01,-1.84509847,7.15399949e-01,4.49901372e-05,5.94428843,-9.67045585e-01,-1,-0.9995353613039065
1.03882539e+05,3.39999878e-01,-5.13564463e-13,3.55259823,4.89172853e-01,-1.84509847,7.15399937e-01,4.50262017e-05,5.94982189,-9.50444378e-01,-1,-0.9995092409960787
1.09278211e+05,3.39999876e-01,-4.92242911e-13,3.55233453,4.83372678e-01,-1.84509847,7.15399922e-01,4.50726962e-05,5.95532107,-9.33946320e-01,-1,-0.9994817222517146
1.14946925e+05,3.39999873e-01,-4.71812419e-13,3.55206538,4.77616242e-01,-1.84509847,7.15399902e-01,4.51316739e-05,5.96078134,-9.17564298e-01,-1,-0.9994528109517988
1.20921627e+05,3.39999870e-01,-4.52513029e-13,3.55179227,4.71925201e-01,-1.84509847,7.15399877e-01,4.52073069e-05,5.96618246,-9.01357594e-01,-1,-0.9994223390667417
1.27203064e+05,3.39999867e-01,-4.34199087e-13,3.55151971,4.66334611e-01,-1.84509847,7.15399845e-01,4.53026504e-05,5.97149060,-8.85427170e-01,-1,-0.9993903027867302
1.33823608e+05,3.39999865e-01,-4.16951409e-13,3.55124501,4.60852094e-01,-1.84509847,7.15399805e-01,4.54235771e-05,5.97669871,-8.69794884e-01,-1,-0.9993565370096616
1.40792263e+05,3.39999862e-01,-4.00834120e-13,3.55097830,4.55522822e-01,-1.84509847,7.15399755e-01,4.55747664e-05,5.98176335,-8.54591693e-01,-1,-0.9993209958137723
1.48130938e+05,3.39999859e-01,-3.85859775e-13,3.55071753,4.50372721e-01,-1.84509847,7.15399692e-01,4.57626277e-05,5.98665967,-8.39892514e-01,-1,-0.9992835674598441
1.55875455e+05,3.39999856e-01,-3.72020577e-13,3.55046780,4.45452476e-01,-1.84509847,7.15399614e-01,4.59955000e-05,5.99133925,-8.25841154e-01,-1,-0.999244069250252
1.64034274e+05,3.39999853e-01,-3.59332438e-13,3.55023186,4.40773206e-01,-1.84509847,7.15399520e-01,4.62790283e-05,5.99579142,-8.12472836e-01,-1,-0.9992024580377146
1.72634808e+05,3.39999850e-01,-3.47755602e-13,3.55001275,4.36367374e-01,-1.84509847,7.15399406e-01,4.66206335e-05,5.99998505,-7.99879860e-01,-1,-0.9991585940117803
1.81704582e+05,3.39999847e-01,-3.37294330e-13,3.54981090,4.32267077e-01,-1.84509847,7.15399270e-01,4.70269674e-05,6.00388939,-7.88154652e-01,-1,-0.9991123367907806
1.91268215e+05,3.39999844e-01,-3.27953588e-13,3.54962374,4.28478626e-01,-1.84509847,7.15399112e-01,4.75030971e-05,6.00749803,-7.77318001e-01,-1,-0.9990635608140869
2.01340901e+05,3.39999841e-01,-3.19549724e-13,3.54944665,4.24987041e-01,-1.84509847,7.15398929e-01,4.80511160e-05,6.01082491,-7.67326777e-01,-1,-0.999012188589998
2.11973456e+05,3.39999837e-01,-3.12047440e-13,3.54928576,4.21803728e-01,-1.84509847,7.15398721e-01,4.86756961e-05,6.01385886,-7.58214232e-01,-1,-0.9989579609492181
2.23182623e+05,3.39999834e-01,-3.05351605e-13,3.54913870,4.18881740e-01,-1.84509847,7.15398488e-01,4.93746159e-05,6.01664447,-7.49848071e-01,-1,-0.9989007924999114
2.34991961e+05,3.39999830e-01,-2.99299490e-13,3.54900173,4.16177651e-01,-1.84509847,7.15398231e-01,5.01450520e-05,6.01922304,-7.42103286e-01,-1,-0.9988405630876099
2.47391407e+05,3.39999827e-01,-2.93745226e-13,3.54887480,4.13642996e-01,-1.84509847,7.15397953e-01,5.09789152e-05,6.02164045,-7.34843915e-01,-1,-0.9987773240351377
2.60530102e+05,3.39999823e-01,-2.88650110e-13,3.54875505,4.11230844e-01,-1.84509847,7.15397652e-01,5.18827115e-05,6.02394145,-7.27931633e-01,-1,-0.9987103147008078
2.74347765e+05,3.39999819e-01,-2.83786915e-13,3.54863945,4.08880252e-01,-1.84509847,7.15397332e-01,5.28412344e-05,6.02618400,-7.21195160e-01,-1,-0.9986398425268495
2.88881686e+05,3.39999815e-01,-2.79060152e-13,3.54852343,4.06528516e-01,-1.84509847,7.15396996e-01,5.38488945e-05,6.02842815,-7.14453500e-01,-1,-0.9985657173286151
3.04170891e+05,3.39999811e-01,-2.74340375e-13,3.54840506,4.04120596e-01,-1.84509847,7.15396646e-01,5.48994797e-05,6.03072635,-7.07550336e-01,-1,-0.9984877400675946
3.20251283e+05,3.39999806e-01,-2.69499086e-13,3.54828178,4.01600829e-01,-1.84509847,7.15396284e-01,5.59858613e-05,6.03313160,-7.00323597e-01,-1,-0.9984057276330502
3.37155756e+05,3.39999802e-01,-2.64424332e-13,3.54815274,3.98913148e-01,-1.84509847,7.15395913e-01,5.70999788e-05,6.03569775,-6.92614357e-01,-1,-0.9983195122606005
3.54965052e+05,3.39999797e-01,-2.58993392e-13,3.54801138,3.95983398e-01,-1.84509847,7.15395535e-01,5.82329506e-05,6.03849566,-6.84206649e-01,-1,-0.998228682153817
3.73733316e+05,3.39999793e-01,-2.53054090e-13,3.54785571,3.92733169e-01,-1.84509847,7.15395155e-01,5.93721525e-05,6.04160024,-6.74876858e-01,-1,-0.9981329611649996
3.93401415e+05,3.39999788e-01,-2.46551280e-13,3.54768419,3.89119952e-01,-1.84509847,7.15394778e-01,6.05031905e-05,6.04505259,-6.64502738e-01,-1,-0.998032650881404
4.14051889e+05,3.39999783e-01,-2.39342638e-13,3.54749978,3.85033860e-01,-1.84509847,7.15394410e-01,6.16075969e-05,6.04895814,-6.52766711e-01,-1,-0.9979273303365296
4.35706589e+05,3.39999778e-01,-2.31325355e-13,3.54728905,3.80368702e-01,-1.84509847,7.15394058e-01,6.26631755e-05,6.05341851,-6.39360230e-01,-1,-0.9978168880869671
4.58396928e+05,3.39999773e-01,-2.22387145e-13,3.54704606,3.75000216e-01,-1.84509847,7.15393733e-01,6.36387802e-05,6.05855288,-6.23925981e-01,-1,-0.9977011639216591
4.82099452e+05,3.39999767e-01,-2.12466155e-13,3.54677323,3.68800658e-01,-1.84509847,7.15393446e-01,6.45013846e-05,6.06448431,-6.06096330e-01,-1,-0.9975802774595576
5.06798262e+05,3.39999762e-01,-2.01578920e-13,3.54646191,3.61649268e-01,-1.84509847,7.15393208e-01,6.52131841e-05,6.07132882,-5.85518187e-01,-1,-0.9974543097879706
5.32463315e+05,3.39999757e-01,-1.89814210e-13,3.54611930,3.53497439e-01,-1.84509847,7.15393031e-01,6.57442620e-05,6.07913507,-5.62045893e-01,-1,-0.9973234141307478
5.59107355e+05,3.39999753e-01,-1.77524808e-13,3.54574343,3.44382816e-01,-1.84509847,7.15392920e-01,6.60798432e-05,6.08786857,-5.35784212e-01,-1,-0.9971875254915594
5.86795568e+05,3.39999748e-01,-1.65162893e-13,3.54536065,3.34554160e-01,-1.84509847,7.15392863e-01,6.62491656e-05,6.09729273,-5.07440422e-01,-1,-0.997046311411933
6.15704965e+05,3.39999743e-01,-1.53337575e-13,3.54497902,3.24378224e-01,-1.84509847,7.15392843e-01,6.63094658e-05,6.10705710,-4.78066202e-01,-1,-0.9968988691089606
6.46060177e+05,3.39999739e-01,-1.42400009e-13,3.54461770,3.14190235e-01,-1.84509847,7.15392839e-01,6.63226290e-05,6.11684055,-4.48627923e-01,-1,-0.9967440529305224
6.77981730e+05,3.39999735e-01,-1.32416294e-13,3.54426668,3.04153339e-01,-1.84509847,7.15392838e-01,6.63242544e-05,6.12650342,-4.19571344e-01,-1,-0.9965812481757649
7.11599788e+05,3.39999730e-01,-1.23334801e-13,3.54393701,2.94322310e-01,-1.84509847,7.15392838e-01,6.63243501e-05,6.13604844,-3.90964479e-01,-1,-0.9964097909885749
7.47016058e+05,3.39999726e-01,-1.15076192e-13,3.54362936,2.84699090e-01,-1.84509847,7.15392838e-01,6.63243526e-05,6.14530348,-3.63104299e-01,-1,-0.9962291626478492
7.84287398e+05,3.39999722e-01,-1.07503242e-13,3.54333677,2.75241528e-01,-1.84509847,7.15392838e-01,6.63243526e-05,6.15440522,-3.35701380e-01,-1,-0.9960390731691767
8.23514209e+05,3.39999718e-01,-1.00550072e-13,3.54306449,2.65935228e-01,-1.84509847,7.15392838e-01,6.63243526e-05,6.16336632,-3.08723608e-01,-1,-0.995839010492252
8.64791226e+05,3.39999714e-01,-9.41499566e-14,3.54280608,2.56769333e-01,-1.84509847,7.15392838e-01,6.63243526e-05,6.17219587,-2.82139196e-01,-1,-0.9956284914542275
9.08224367e+05,3.39999710e-01,-8.82490754e-14,3.54256145,2.47733395e-01,-1.84509847,7.15392838e-01,6.63243526e-05,6.18090421,-2.55910937e-01,-1,-0.9954069758572621
9.53922629e+05,3.39999706e-01,-8.27988117e-14,3.54232997,2.38816987e-01,-1.84509847,7.15392838e-01,6.63243526e-05,6.18950272,-2.30012630e-01,-1,-0.9951739078001486
1.00200213e+06,3.39999702e-01,-7.77528358e-14,3.54211329,2.30011230e-01,-1.84509847,7.15392838e-01,6.63243526e-05,6.19799890,-2.04421633e-01,-1,-0.994928695063501
1.05257784e+06,3.39999699e-01,-7.30730333e-14,3.54190566,2.21308923e-01,-1.84509847,7.15392838e-01,6.63243526e-05,6.20639799,-1.79116039e-01,-1,-0.9946707512829074
1.10577989e+06,3.39999695e-01,-6.87274683e-14,3.54170550,2.12702505e-01,-1.84509847,7.15392838e-01,6.63243526e-05,6.21470747,-1.54074818e-01,-1,-0.9943994127705597
1.16173771e+06,3.39999691e-01,-6.46834640e-14,3.54151710,2.04184009e-01,-1.84509847,7.15392838e-01,6.63243526e-05,6.22293482,-1.29273933e-01,-1,-0.9941140194138559
1.22058566e+06,3.39999687e-01,-6.09181326e-14,3.54133772,1.95747677e-01,-1.84509847,7.15392838e-01,6.63243526e-05,6.23108554,-1.04701639e-01,-1,-0.9938138859564475
1.28247797e+06,3.39999684e-01,-5.74049970e-14,3.54117044,1.87387056e-01,-1.84509847,7.15392838e-01,6.63243527e-05,6.23916629,-8.03386803e-02,-1,-0.9934982258019767
1.34758349e+06,3.39999680e-01,-5.41297645e-14,3.54100478,1.79099678e-01,-1.84509847,7.15392838e-01,6.63243527e-05,6.24718017,-5.61782924e-02,-1,-0.9931661777898714
1.41605272e+06,3.39999677e-01,-5.10650771e-14,3.54084482,1.70879558e-01,-1.84509847,7.15392838e-01,6.63243527e-05,6.25513138,-3.22054615e-02,-1,-0.9928169743473387
1.48805109e+06,3.39999673e-01,-4.81967476e-14,3.54069040,1.62722291e-01,-1.84509847,7.15392838e-01,6.63243527e-05,6.26302410,-8.40248235e-03,-1,-0.9924497717563247
1.56374551e+06,3.39999670e-01,-4.55075289e-14,3.54054638,1.54622482e-01,-1.84509847,7.15392838e-01,6.63243528e-05,6.27086358,1.52474849e-02,-1,-0.9920637187505509
1.64339515e+06,3.39999666e-01,-4.29938464e-14,3.54040188,1.46578776e-01,-1.84509847,7.15392838e-01,6.63243528e-05,6.27865091,3.87445332e-02,-1,-0.9916574935237668
1.72712272e+06,3.39999663e-01,-4.06284933e-14,3.54026219,1.38585662e-01,-1.84509847,7.15392838e-01,6.63243529e-05,6.28639136,6.21028699e-02,-1,-0.9912304702363879
1.81514047e+06,3.39999659e-01,-3.84077839e-14,3.54012606,1.30640350e-01,-1.84509847,7.15392838e-01,6.63243530e-05,6.29408733,8.53294635e-02,-1,-0.9907815663812697
1.90775863e+06,3.39999656e-01,-3.63246090e-14,3.53999562,1.22740052e-01,-1.84509847,7.15392838e-01,6.63243531e-05,6.30174192,1.08435372e-01,-1,-0.9903091997384281
2.00510410e+06,3.39999652e-01,-3.43655605e-14,3.53986844,1.14881656e-01,-1.84509847,7.15392838e-01,6.63243532e-05,6.30935829,1.31428468e-01,-1,-0.9898127230986448
2.10748261e+06,3.39999649e-01,-3.25209974e-14,3.53974869,1.07062287e-01,-1.84509847,7.15392838e-01,6.63243534e-05,6.31693895,1.54320010e-01,-1,-0.989290577192617
2.21515437e+06,3.39999646e-01,-3.07855945e-14,3.53963199,9.92796370e-02,-1.84509847,7.15392838e-01,6.63243536e-05,6.32448572,1.77111327e-01,-1,-0.9887414349099369
2.32830941e+06,3.39999642e-01,-2.91488757e-14,3.53951850,9.15310906e-02,-1.84509847,7.15392838e-01,6.63243539e-05,6.33200012,1.99812892e-01,-1,-0.9881643270688246
2.44739834e+06,3.39999639e-01,-2.76078073e-14,3.53941288,8.38145670e-02,-1.84509847,7.15392838e-01,6.63243543e-05,6.33948501,2.22427565e-01,-1,-0.9875569554900362
2.57253008e+06,3.39999636e-01,-2.61546208e-14,3.53931160,7.61274121e-02,-1.84509847,7.15392838e-01,6.63243547e-05,6.34694285,2.44966402e-01,-1,-0.9869187646650758
2.70418854e+06,3.39999632e-01,-2.47831393e-14,3.53921574,6.84681528e-02,-1.84509847,7.15392838e-01,6.63243553e-05,6.35437521,2.67433013e-01,-1,-0.9862472865796563
2.84256823e+06,3.39999629e-01,-2.34909952e-14,3.53911963,6.08358572e-02,-1.84509847,7.15392838e-01,6.63243561e-05,6.36178260,2.89826951e-01,-1,-0.9855415292033195
2.98809390e+06,3.39999626e-01,-2.22687016e-14,3.53902700,5.32282783e-02,-1.84509847,7.15392838e-01,6.63243571e-05,6.36916742,3.12153424e-01,-1,-0.9847993262467377
3.14111406e+06,3.39999622e-01,-2.11139589e-14,3.53893626,4.56439001e-02,-1.84509847,7.15392838e-01,6.63243584e-05,6.37653064,3.34420025e-01,-1,-0.98401890025613
3.30197260e+06,3.39999619e-01,-2.00214000e-14,3.53884767,3.80816503e-02,-1.84509847,7.15392838e-01,6.63243599e-05,6.38387310,3.56631691e-01,-1,-0.9831984973404148
3.47118326e+06,3.39999616e-01,-1.89912340e-14,3.53876420,3.05399357e-02,-1.84509847,7.15392838e-01,6.63243620e-05,6.39119631,3.78790101e-01,-1,-0.982335497347787
