star_age,star_mass,star_mdot,log_Teff,log_R,log_surf_z,surface_h1,surface_he3,log_center_T,log_center_Rho,phase,x
1.91448677e+03,8.99999941e-01,-2.74244841e-11,3.60903440,1.13105067,-1.84510052,7.15400168e-01,4.48623431e-05,5.73764287,-2.41465376,-1,-1.0
2.01807182e+03,8.99999938e-01,-2.70262703e-11,3.60926537,1.12859884,-1.84510050,7.15400167e-01,4.48623432e-05,5.73994611,-2.40776989,-1,-0.9999980338081542
2.12725514e+03,8.99999935e-01,-2.66179537e-11,3.60950377,1.12605379,-1.84510048,7.15400165e-01,4.48623433e-05,5.74233759,-2.40062250,-1,-0.9999959613531669
2.24242302e+03,8.99999932e-01,-2.61976780e-11,3.60974757,1.12341210,-1.84510046,7.15400163e-01,4.48623434e-05,5.74482047,-2.39320173,-1,-0.9999937753027036
2.36383090e+03,8.99999929e-01,-2.57674311e-11,3.61000004,1.12067274,-1.84510044,7.15400161e-01,4.48623435e-05,5.74739572,-2.38550574,-1,-0.999991470808149
2.49175941e+03,8.99999926e-01,-2.53290061e-11,3.61027842,1.11783434,-1.84510041,7.15400158e-01,4.48623436e-05,5.75006455,-2.37752805,-1,-0.9999890425427458
2.62648299e+03,8.99999922e-01,-2.48881405e-11,3.61059268,1.11489508,-1.84510038,7.15400156e-01,4.48623438e-05,5.75282886,-2.36926330,-1,-0.9999864852972318
2.76824014e+03,8.99999919e-01,-2.44404299e-11,3.61087575,1.11185667,-1.84510034,7.15400153e-01,4.48623440e-05,5.75568769,-2.36071632,-1,-0.9999837945445372
2.91731304e+03,8.99999915e-01,-2.39805592e-11,3.61117522,1.10871809,-1.84510030,7.15400149e-01,4.48623442e-05,5.75864163,-2.35188373,-1,-0.9999809649284834
3.07515038e+03,8.99999911e-01,-2.35104192e-11,3.61147740,1.10546432,-1.84510026,7.15400145e-01,4.48623444e-05,5.76170472,-2.34272340,-1,-0.9999779689508702
3.24120464e+03,8.99999908e-01,-2.30378981e-11,3.61178515,1.10210714,-1.84510021,7.15400141e-01,4.48623446e-05,5.76486668,-2.33326904,-1,-0.9999748170044073
3.41555086e+03,8.99999904e-01,-2.25620763e-11,3.61210250,1.09864997,-1.84510015,7.15400136e-01,4.48623449e-05,5.76812365,-2.32352917,-1,-0.9999715076647283
3.60032376e+03,8.99999900e-01,-2.20791907e-11,3.61243235,1.09507189,-1.84510010,7.15400132e-01,4.48623452e-05,5.77149590,-2.31344699,-1,-0.9999680004118062
3.79400451e+03,8.99999895e-01,-2.15924627e-11,3.61276167,1.09139555,-1.84510004,7.15400126e-01,4.48623455e-05,5.77496139,-2.30308383,-1,-0.9999643240751985
3.99892787e+03,8.99999891e-01,-2.11003448e-11,3.61314398,1.08759825,-1.84509998,7.15400121e-01,4.48623458e-05,5.77854177,-2.29237604,-1,-0.9999604343378335
4.21388558e+03,8.99999887e-01,-2.06101790e-11,3.61350135,1.08369997,-1.84509991,7.15400115e-01,4.48623461e-05,5.78221864,-2.28137810,-1,-0.9999563541342077
4.44131360e+03,8.99999882e-01,-2.01181328e-11,3.61390139,1.07967998,-1.84509984,7.15400109e-01,4.48623465e-05,5.78601174,-2.27003052,-1,-0.9999520372263294
4.68038830e+03,8.99999877e-01,-1.96245123e-11,3.61428218,1.07555361,-1.84509976,7.15400102e-01,4.48623469e-05,5.78990698,-2.25837643,-1,-0.9999474992478695
4.93183066e+03,8.99999872e-01,-1.91203078e-11,3.61464992,1.07131981,-1.84509968,7.15400096e-01,4.48623474e-05,5.79390525,-2.24641344,-1,-0.9999427265136003
5.19734277e+03,8.99999867e-01,-1.86226337e-11,3.61503573,1.06696932,-1.84509960,7.15400089e-01,4.48623478e-05,5.79801596,-2.23411420,-1,-0.9999376867154283
5.47695325e+03,8.99999862e-01,-1.81214694e-11,3.61542302,1.06250928,-1.84509952,7.15400082e-01,4.48623483e-05,5.80223220,-2.22149991,-1,-0.9999323793101051
5.77137922e+03,8.99999857e-01,-1.76253035e-11,3.61584888,1.05793913,-1.84509944,7.15400075e-01,4.48623489e-05,5.80655410,-2.20856836,-1,-0.9999267906856715
6.08140627e+03,8.99999852e-01,-1.71376152e-11,3.61629180,1.05325800,-1.84509937,7.15400068e-01,4.48623494e-05,5.81098250,-2.19531687,-1,-0.9999209059305096
6.40786466e+03,8.99999846e-01,-1.66443555e-11,3.61670219,1.04846970,-1.84509929,7.15400062e-01,4.48623499e-05,5.81551396,-2.18175423,-1,-0.9999147092851018
6.75171810e+03,8.99999841e-01,-1.61522746e-11,3.61712107,1.04357392,-1.84509922,7.15400056e-01,4.48623505e-05,5.82014873,-2.16788054,-1,-0.9999081824568591
7.11396358e+03,8.99999835e-01,-1.56671511e-11,3.61758466,1.03856943,-1.84509916,7.15400051e-01,4.48623512e-05,5.82488839,-2.15369240,-1,-0.9999013065214906
7.49543827e+03,8.99999829e-01,-1.51884114e-11,3.61804003,1.03345863,-1.84509910,7.15400045e-01,4.48623519e-05,5.82973051,-2.13919483,-1,-0.9998940655883168
7.89707189e+03,8.99999823e-01,-1.47120420e-11,3.61847645,1.02823010,-1.84509904,7.15400040e-01,4.48623529e-05,5.83461354,-2.12448638,-1,-0.9998864420099276
8.31999373e+03,8.99999817e-01,-1.42398576e-11,3.61895791,1.02289872,-1.84509898,7.15400035e-01,4.48623542e-05,5.83964859,-2.10938762,-1,-0.9998784143507895
8.76511173e+03,8.99999811e-01,-1.37767999e-11,3.61942042,1.01748248,-1.84509892,7.15400030e-01,4.48623558e-05,5.84478795,-2.09399947,-1,-0.9998699653769076
9.23412255e+03,8.99999805e-01,-1.33166530e-11,3.61987338,1.01195372,-1.84509887,7.15400026e-01,4.48623578e-05,5.85002517,-2.07830837,-1,-0.9998610628832576
9.72836511e+03,8.99999798e-01,-1.28666314e-11,3.62038588,1.00632430,-1.84509882,7.15400021e-01,4.48623606e-05,5.85536991,-2.06230401,-1,-0.9998516814552301
1.02480931e+04,8.99999792e-01,-1.24231330e-11,3.62084969,1.00059402,-1.84509877,7.15400017e-01,4.48623646e-05,5.86081406,-2.04600214,-1,-0.9998418162774274
1.07954516e+04,8.99999785e-01,-1.19853215e-11,3.62133984,9.94789379e-01,-1.84509872,7.15400013e-01,4.48623702e-05,5.86633171,-2.02947606,-1,-0.9998314266331746
1.13721859e+04,8.99999778e-01,-1.15594919e-11,3.62181939,9.88885561e-01,-1.84509869,7.15400010e-01,4.48623773e-05,5.87194531,-2.01265781,-1,-0.9998204793943806
1.19784249e+04,8.99999771e-01,-1.11419235e-11,3.62229791,9.82907390e-01,-1.84509865,7.15400007e-01,4.48623867e-05,5.87763356,-1.99561425,-1,-0.9998089721143398
1.26181894e+04,8.99999765e-01,-1.07330182e-11,3.62282011,9.76828257e-01,-1.84509862,7.15400004e-01,4.48624012e-05,5.88341992,-1.97827336,-1,-0.9997968284725391
1.32901052e+04,8.99999758e-01,-1.03328952e-11,3.62328938,9.70672834e-01,-1.84509859,7.15400002e-01,4.48624221e-05,5.88928223,-1.96071011,-1,-0.9997840745532525
1.39988534e+04,8.99999750e-01,-9.94102206e-12,3.62376419,9.64430003e-01,-1.84509857,7.15400000e-01,4.48624523e-05,5.89523090,-1.94288483,-1,-0.9997706215025319
1.47443226e+04,8.99999743e-01,-9.56381226e-12,3.62431299,9.58112882e-01,-1.84509855,7.15399998e-01,4.48624942e-05,5.90125327,-1.92484034,-1,-0.9997564714349082
1.55294280e+04,8.99999736e-01,-9.18962919e-12,3.62481139,9.51716510e-01,-1.84509853,7.15399997e-01,4.48625461e-05,5.90735458,-1.90655546,-1,-0.9997415690157314
1.63558161e+04,8.99999728e-01,-8.83016332e-12,3.62530403,9.45239869e-01,-1.84509852,7.15399995e-01,4.48626223e-05,5.91353549,-1.88802757,-1,-0.9997258829920855
1.72251223e+04,8.99999721e-01,-8.47846770e-12,3.62579180,9.38701791e-01,-1.84509851,7.15399994e-01,4.48627236e-05,5.91977784,-1.86931559,-1,-0.9997093823217483
1.81411070e+04,8.99999713e-01,-8.13991060e-12,3.62631630,9.32097524e-01,-1.84509850,7.15399994e-01,4.48628511e-05,5.92608663,-1.85040059,-1,-0.9996919956269696
1.91051522e+04,8.99999706e-01,-7.80712105e-12,3.62679919,9.25420841e-01,-1.84509849,7.15399993e-01,4.48630508e-05,5.93246779,-1.83126856,-1,-0.9996736966754203
2.01200005e+04,8.99999698e-01,-7.48728661e-12,3.62732658,9.18682205e-01,-1.84509849,7.15399993e-01,4.48633174e-05,5.93891116,-1.81194771,-1,-0.9996544334086443
2.11876282e+04,8.99999690e-01,-7.17762759e-12,3.62781870,9.11880167e-01,-1.84509848,7.15399992e-01,4.48636792e-05,5.94541786,-1.79243628,-1,-0.9996341683136518
2.23116962e+04,8.99999683e-01,-6.87614861e-12,3.62833836,9.05028357e-01,-1.84509848,7.15399992e-01,4.48642379e-05,5.95197468,-1.77277042,-1,-0.9996128319013444
2.34953550e+04,8.99999675e-01,-6.58674733e-12,3.62881860,8.98115908e-01,-1.84509848,7.15399991e-01,4.48650563e-05,5.95859261,-1.75292088,-1,-0.9995903643707429
2.47412209e+04,8.99999667e-01,-6.30598352e-12,3.62930540,8.91152675e-01,-1.84509848,7.15399991e-01,4.48660800e-05,5.96526290,-1.73290905,-1,-0.9995667160607455
2.60528790e+04,8.99999659e-01,-6.03491357e-12,3.62982449,8.84138447e-01,-1.84509848,7.15399990e-01,4.48675650e-05,5.97198631,-1.71274051,-1,-0.9995418189210458
2.74329709e+04,8.99999651e-01,-5.77409980e-12,3.63030211,8.77081426e-01,-1.84509848,7.15399990e-01,4.48697029e-05,5.97875460,-1.69243543,-1,-0.9995156228103118
2.88857340e+04,8.99999642e-01,-5.52219823e-12,3.63077736,8.69989025e-01,-1.84509847,7.15399989e-01,4.48729146e-05,5.98555991,-1.67202041,-1,-0.9994880472966536
3.04147811e+04,8.99999634e-01,-5.27962874e-12,3.63124398,8.62858621e-01,-1.84509847,7.15399987e-01,4.48770467e-05,5.99240404,-1.65148089,-1,-0.9994590238039797
3.20250326e+04,8.99999626e-01,-5.04705080e-12,3.63175105,8.55694143e-01,-1.84509847,7.15399985e-01,4.48824923e-05,5.99928394,-1.63083090,-1,-0.9994284589360867
3.37193445e+04,8.99999618e-01,-4.82395427e-12,3.63220949,8.48505096e-01,-1.84509847,7.15399983e-01,4.48894960e-05,6.00619099,-1.61009845,-1,-0.9993962984820254
3.55027168e+04,8.99999609e-01,-4.60880001e-12,3.63264644,8.41305730e-01,-1.84509847,7.15399980e-01,4.48992961e-05,6.01311136,-1.58933052,-1,-0.9993624475346713
3.73817568e+04,8.99999601e-01,-4.40512180e-12,3.63316157,8.34093919e-01,-1.84509847,7.15399975e-01,4.49139578e-05,6.02004651,-1.56851665,-1,-0.9993267806780557
3.93587475e+04,8.99999592e-01,-4.20817764e-12,3.63360547,8.26881302e-01,-1.84509847,7.15399969e-01,4.49321955e-05,6.02698553,-1.54768746,-1,-0.9992892545775857
4.14403315e+04,8.99999584e-01,-4.02030737e-12,3.63403807,8.19687416e-01,-1.84509847,7.15399959e-01,4.49604368e-05,6.03391033,-1.52689659,-1,-0.9992497431472481
4.36326587e+04,8.99999575e-01,-3.84040597e-12,3.63447101,8.12538027e-01,-1.84509847,7.15399946e-01,4.50013385e-05,6.04079566,-1.50622175,-1,-0.9992081296531784
4.59416045e+04,8.99999567e-01,-3.67144248e-12,3.63488953,8.05438501e-01,-1.84509847,7.15399930e-01,4.50477225e-05,6.04763626,-1.48568311,-1,-0.9991643025719126
4.83738926e+04,8.99999558e-01,-3.51090446e-12,3.63529287,7.98418842e-01,-1.84509847,7.15399907e-01,4.51176896e-05,6.05440266,-1.46536873,-1,-0.9991181342780442
5.09374443e+04,8.99999549e-01,-3.35997526e-12,3.63571112,7.91505248e-01,-1.84509847,7.15399874e-01,4.52154010e-05,6.06106941,-1.44535522,-1,-0.9990694744140123
5.36388291e+04,8.99999541e-01,-3.21718384e-12,3.63609252,7.84740843e-01,-1.84509847,7.15399828e-01,4.53529671e-05,6.06759546,-1.42576166,-1,-0.9990181982813461
5.64862890e+04,8.99999532e-01,-3.08420445e-12,3.63644348,7.78163894e-01,-1.84509847,7.15399779e-01,4.55006111e-05,6.07394360,-1.40670205,-1,-0.9989641494351417
5.94877308e+04,8.99999523e-01,-2.96031317e-12,3.63675787,7.71816009e-01,-1.84509847,7.15399708e-01,4.57131082e-05,6.08007365,-1.38829642,-1,-0.9989071777930687
6.26568230e+04,8.99999514e-01,-2.84699756e-12,3.63712379,7.65746423e-01,-1.84509847,7.15399610e-01,4.60078846e-05,6.08593722,-1.37068824,-1,-0.9988470239075213
6.60017390e+04,8.99999504e-01,-2.74349499e-12,3.63741108,7.60000834e-01,-1.84509847,7.15399471e-01,4.64253848e-05,6.09148979,-1.35401660,-1,-0.9987835326357213
6.95279090e+04,8.99999495e-01,-2.64922705e-12,3.63770019,7.54612408e-01,-1.84509847,7.15399317e-01,4.68881885e-05,6.09669875,-1.33837584,-1,-0.9987166009047351
7.32549002e+04,8.99999485e-01,-2.56521268e-12,3.63794592,7.49614394e-01,-1.84509847,7.15399151e-01,4.73865298e-05,6.10153176,-1.32386073,-1,-0.998645857301226
7.71879289e+04,8.99999475e-01,-2.48944411e-12,3.63816654,7.45005815e-01,-1.84509847,7.15398935e-01,4.80344167e-05,6.10598968,-1.31047419,-1,-0.9985712028123871
8.13387475e+04,8.99999465e-01,-2.42173955e-12,3.63839790,7.40771237e-01,-1.84509847,7.15398673e-01,4.88183975e-05,6.11008702,-1.29816924,-1,-0.9984924143609206
8.57172794e+04,8.99999455e-01,-2.36136076e-12,3.63857454,7.36865940e-01,-1.84509847,7.15398369e-01,4.97318642e-05,6.11386685,-1.28682214,-1,-0.998409303586555
9.03314966e+04,8.99999444e-01,-2.30626458e-12,3.63873827,7.33226356e-01,-1.84509847,7.15398037e-01,5.07268134e-05,6.11739021,-1.27624253,-1,-0.9983217191693708
9.52056068e+04,8.99999433e-01,-2.25579323e-12,3.63889130,7.29789679e-01,-1.84509847,7.15397663e-01,5.18492786e-05,6.12071807,-1.26625223,-1,-0.9982292016127292
1.00344830e+05,8.99999422e-01,-2.20810343e-12,3.63905690,7.26449813e-01,-1.84509847,7.15397263e-01,5.30493576e-05,6.12395277,-1.25654237,-1,-0.9981316518335921
1.05751696e+05,8.99999410e-01,-2.16264092e-12,3.63924214,7.23115063e-01,-1.84509847,7.15396830e-01,5.43474213e-05,6.12718309,-1.24684404,-1,-0.9980290218127507
1.11461031e+05,8.99999398e-01,-2.11645076e-12,3.63940189,7.19683418e-01,-1.84509847,7.15396393e-01,5.56579972e-05,6.13050817,-1.23685940,-1,-0.9979206504993059
1.17457768e+05,8.99999385e-01,-2.06875291e-12,3.63956146,7.16071706e-01,-1.84509847,7.15395955e-01,5.69747634e-05,6.13400838,-1.22635007,-1,-0.9978068238863863
1.23786879e+05,8.99999373e-01,-2.01804594e-12,3.63973122,7.12146744e-01,-1.84509847,7.15395497e-01,5.83480858e-05,6.13781291,-1.21492642,-1,-0.9976866883413521
1.30425733e+05,8.99999359e-01,-1.96324837e-12,3.63989740,7.07836679e-01,-1.84509847,7.15395026e-01,5.97611865e-05,6.14199179,-1.20237804,-1,-0.9975606734328297
1.37410357e+05,8.99999346e-01,-1.90245165e-12,3.64009601,7.02988664e-01,-1.84509847,7.15394554e-01,6.11768276e-05,6.14669296,-1.18826277,-1,-0.997428095317025
1.44747026e+05,8.99999332e-01,-1.83563766e-12,3.64034488,6.97457101e-01,-1.84509847,7.15394106e-01,6.25202715e-05,6.15205864,-1.17215449,-1,-0.9972888348854967
1.52440945e+05,8.99999319e-01,-1.76129821e-12,3.64060150,6.91093149e-01,-1.84509847,7.15393715e-01,6.36929559e-05,6.15823331,-1.15361460,-1,-0.9971427933399283
1.60473692e+05,8.99999305e-01,-1.67860249e-12,3.64086653,6.83798907e-01,-1.84509847,7.15393403e-01,6.46297849e-05,6.16531336,-1.13235157,-1,-0.9969903203561289
1.68860574e+05,8.99999291e-01,-1.58844821e-12,3.64118782,6.75421086e-01,-1.84509847,7.15393145e-01,6.54029113e-05,6.17344981,-1.10791920,-1,-0.9968311253854281
1.77591311e+05,8.99999278e-01,-1.49207872e-12,3.64154005,6.66017128e-01,-1.84509847,7.15392968e-01,6.59353804e-05,6.18258785,-1.08048438,-1,-0.9966654035568734
1.86683497e+05,8.99999265e-01,-1.39437413e-12,3.64187441,6.55778061e-01,-1.84509847,7.15392884e-01,6.61858835e-05,6.19254135,-1.05060316,-1,-0.9964928209112754
1.96189160e+05,8.99999252e-01,-1.29870712e-12,3.64222990,6.45067860e-01,-1.84509847,7.15392848e-01,6.62939007e-05,6.20295747,-1.01932663,-1,-0.9963123898830605
2.06156930e+05,8.99999240e-01,-1.20851986e-12,3.64254626,6.34290370e-01,-1.84509847,7.15392839e-01,6.63205541e-05,6.21344646,-9.87827134e-01,-1,-0.9961231874055363
2.16645269e+05,8.99999228e-01,-1.12582569e-12,3.64281724,6.23646682e-01,-1.84509847,7.15392838e-01,6.63241014e-05,6.22381208,-9.56701910e-01,-1,-0.9959241037866412
2.27690457e+05,8.99999216e-01,-1.05003661e-12,3.64311675,6.13167386e-01,-1.84509847,7.15392838e-01,6.63243458e-05,6.23412006,-9.25866346e-01,-1,-0.9957144503802804
2.39320191e+05,8.99999204e-01,-9.80311262e-13,3.64333472,6.02909552e-01,-1.84509847,7.15392838e-01,6.63243525e-05,6.24411577,-8.95851780e-01,-1,-0.9954937014579288
2.51558473e+05,8.99999193e-01,-9.15867582e-13,3.64352295,5.92822522e-01,-1.84509847,7.15392838e-01,6.63243526e-05,6.25395105,-8.66320811e-01,-1,-0.9952614014274266
2.64451303e+05,8.99999181e-01,-8.56733537e-13,3.64372745,5.82887079e-01,-1.84509847,7.15392838e-01,6.63243526e-05,6.26364457,-8.37218573e-01,-1,-0.9950166771432287
2.78016644e+05,8.99999170e-01,-8.01892991e-13,3.64386112,5.73111374e-01,-1.84509847,7.15392838e-01,6.63243526e-05,6.27318662,-8.08568399e-01,-1,-0.9947591876420001
2.92301045e+05,8.99999159e-01,-7.51221558e-13,3.64400016,5.63470891e-01,-1.84509847,7.15392838e-01,6.63243526e-05,6.28259925,-7.80300866e-01,-1,-0.9944880493573939
3.07331779e+05,8.99999148e-01,-7.04080725e-13,3.64410235,5.53963905e-01,-1.84509847,7.15392838e-01,6.63243526e-05,6.29188508,-7.52416508e-01,-1,-0.994202744609009
3.23155909e+05,8.99999138e-01,-6.60432841e-13,3.64419839,5.44578263e-01,-1.84509847,7.15392838e-01,6.63243526e-05,6.30105658,-7.24879252e-01,-1,-0.9939023800740463
3.39803386e+05,8.99999127e-01,-6.19905193e-13,3.64424618,5.35313799e-01,-1.84509847,7.15392838e-01,6.63243526e-05,6.31011287,-6.97689247e-01,-1,-0.9935863872398489
3.57327079e+05,8.99999117e-01,-5.82059331e-13,3.64428239,5.26159627e-01,-1.84509847,7.15392838e-01,6.63243526e-05,6.31906446,-6.70814302e-01,-1,-0.9932537625774647
3.75765594e+05,8.99999106e-01,-5.46878069e-13,3.64428571,5.17112729e-01,-1.84509847,7.15392838e-01,6.63243526e-05,6.32791416,-6.44238302e-01,-1,-0.9929037732900045
3.95182575e+05,8.99999096e-01,-5.14216879e-13,3.64431036,5.08157790e-01,-1.84509847,7.15392838e-01,6.63243526e-05,6.33667674,-6.17923207e-01,-1,-0.9925352113236628
4.15600650e+05,8.99999086e-01,-4.83545444e-13,3.64427370,4.99302202e-01,-1.84509847,7.15392838e-01,6.63243526e-05,6.34534618,-5.91890615e-01,-1,-0.9921476471667576
4.37081982e+05,8.99999076e-01,-4.54888322e-13,3.64421177,4.90537556e-01,-1.84509847,7.15392838e-01,6.63243527e-05,6.35392922,-5.66122307e-01,-1,-0.9917399008769735
4.59695725e+05,8.99999066e-01,-4.28005209e-13,3.64412256,4.81861935e-01,-1.84509847,7.15392838e-01,6.63243527e-05,6.36242735,-5.40607163e-01,-1,-0.9913106598128543
4.83496676e+05,8.99999056e-01,-4.03043739e-13,3.64402761,4.73266900e-01,-1.84509847,7.15392838e-01,6.63243527e-05,6.37084800,-5.15319925e-01,-1,-0.9908588838492604
5.08531110e+05,8.99999047e-01,-3.79637702e-13,3.64390177,4.64751769e-01,-1.84509847,7.15392838e-01,6.63243527e-05,6.37919308,-4.90257707e-01,-1,-0.9903836946207552
5.34861083e+05,8.99999037e-01,-3.57631027e-13,3.64374500,4.56313587e-01,-1.84509847,7.15392838e-01,6.63243528e-05,6.38746589,-4.65416483e-01,-1,-0.9898839142160362
5.62602761e+05,8.99999028e-01,-3.37107587e-13,3.64360358,4.47941176e-01,-1.84509847,7.15392838e-01,6.63243528e-05,6.39567664,-4.40764906e-01,-1,-0.9893573376389001
5.91761633e+05,8.99999018e-01,-3.17692135e-13,3.64340414,4.39642553e-01,-1.84509847,7.15392838e-01,6.63243529e-05,6.40381635,-4.16324881e-01,-1,-0.9888038607003058
6.22432822e+05,8.99999009e-01,-2.99585412e-13,3.64317884,4.31411776e-01,-1.84509847,7.15392838e-01,6.63243530e-05,6.41189216,-3.92073253e-01,-1,-0.988221677830174
6.54742464e+05,8.99998999e-01,-2.82553675e-13,3.64296876,4.23240701e-01,-1.84509847,7.15392838e-01,6.63243531e-05,6.41991142,-3.67988652e-01,-1,-0.9876083947874954
6.88699968e+05,8.99998990e-01,-2.66544812e-13,3.64271428,4.15132169e-01,-1.84509847,7.15392838e-01,6.63243532e-05,6.42787136,-3.44084609e-01,-1,-0.9869638329760432
7.24453613e+05,8.99998981e-01,-2.51554523e-13,3.64244183,4.07083533e-01,-1.84509847,7.15392838e-01,6.63243534e-05,6.43577434,-3.20351466e-01,-1,-0.9862851778491168
7.62047975e+05,8.99998972e-01,-2.37402280e-13,3.64214458,3.99092970e-01,-1.84509847,7.15392838e-01,6.63243536e-05,6.44362141,-2.96787663e-01,-1,-0.9855715832907209
8.01611156e+05,8.99998963e-01,-2.24081496e-13,3.64181572,3.91161475e-01,-1.84509847,7.15392838e-01,6.63243539e-05,6.45141187,-2.73389122e-01,-1,-0.9848206177423646
8.43214891e+05,8.99998954e-01,-2.11538199e-13,3.64146451,3.83285132e-01,-1.84509847,7.15392838e-01,6.63243543e-05,6.45914945,-2.50146644e-01,-1,-0.9840309195715339
8.87019302e+05,8.99998945e-01,-1.99729431e-13,3.64110603,3.75460524e-01,-1.84509847,7.15392838e-01,6.63243547e-05,6.46683823,-2.27050362e-01,-1,-0.9831994494345133
9.33069181e+05,8.99998936e-01,-1.88656116e-13,3.64072579,3.67685318e-01,-1.84509847,7.15392838e-01,6.63243553e-05,6.47448012,-2.04096751e-01,-1,-0.9823253571153194
9.81556880e+05,8.99998927e-01,-1.78185303e-13,3.64031937,3.59961709e-01,-1.84509847,7.15392838e-01,6.63243561e-05,6.48207333,-1.81291518e-01,-1,-0.9814049914989128
1.03252867e+06,8.99998918e-01,-1.68333351e-13,3.63989303,3.52286410e-01,-1.84509847,7.15392838e-01,6.63243570e-05,6.48962104,-1.58619136e-01,-1,-0.9804374742957827
1.08617730e+06,8.99998910e-01,-1.59041480e-13,3.63944050,3.44659992e-01,-1.84509847,7.15392838e-01,6.63243582e-05,6.49712168,-1.36088897e-01,-1,-0.9794191468552638
