star_age,star_mass,star_mdot,log_Teff,log_R,log_surf_z,surface_h1,surface_he3,log_center_T,log_center_Rho,phase,x
6.00883501e+04,9.99999929e-02,-9.98364990e-14,3.46768913,1.88424917e-01,-1.84509847,7.15399992e-01,4.48632109e-05,5.73941763,-5.65504042e-01,-1,-1.0
6.32847191e+04,9.99999925e-02,-9.82491172e-14,3.46776529,1.85996909e-01,-1.84509847,7.15399992e-01,4.48633187e-05,5.74162442,-5.58841572e-01,-1,-0.999998011626996
6.66510587e+04,9.99999922e-02,-9.66292195e-14,3.46784406,1.83478107e-01,-1.84509847,7.15399992e-01,4.48634434e-05,5.74391417,-5.51927248e-01,-1,-0.9999959175199692
7.01944717e+04,9.99999919e-02,-9.49738121e-14,3.46792578,1.80855466e-01,-1.84509847,7.15399992e-01,4.48635880e-05,5.74629808,-5.44724623e-01,-1,-0.9999937132604636
7.39225309e+04,9.99999915e-02,-9.32825156e-14,3.46800929,1.78165771e-01,-1.84509847,7.15399992e-01,4.48637557e-05,5.74874432,-5.37334747e-01,-1,-0.9999913941376494
7.78418483e+04,9.99999912e-02,-9.15824565e-14,3.46809561,1.75373212e-01,-1.84509847,7.15399991e-01,4.48639505e-05,5.75128375,-5.29659974e-01,-1,-0.9999889560383834
8.19594119e+04,9.99999908e-02,-8.98447068e-14,3.46818392,1.72501590e-01,-1.84509847,7.15399991e-01,4.48641768e-05,5.75389597,-5.21765181e-01,-1,-0.9999863946156238
8.63168869e+04,9.99999904e-02,-8.80955406e-14,3.46827461,1.69534272e-01,-1.84509847,7.15399991e-01,4.48644468e-05,5.75659642,-5.13599427e-01,-1,-0.9999836839505987
9.08956884e+04,9.99999900e-02,-8.63311351e-14,3.46836789,1.66465137e-01,-1.84509847,7.15399991e-01,4.48647630e-05,5.75938944,-5.05151965e-01,-1,-0.9999808356044616
9.56978244e+04,9.99999896e-02,-8.45343036e-14,3.46846302,1.63312966e-01,-1.84509847,7.15399991e-01,4.48651319e-05,5.76225866,-4.96471588e-01,-1,-0.9999778483280914
1.00784249e+05,9.99999892e-02,-8.27322101e-14,3.46856065,1.60061667e-01,-1.84509847,7.15399991e-01,4.48655781e-05,5.76521910,-4.87510530e-01,-1,-0.9999746842036233
1.06112105e+05,9.99999888e-02,-8.09214239e-14,3.46866087,1.56708090e-01,-1.84509847,7.15399991e-01,4.48661003e-05,5.76827292,-4.78266756e-01,-1,-0.9999713698913397
1.11740375e+05,9.99999883e-02,-7.90845655e-14,3.46876315,1.53266475e-01,-1.84509847,7.15399991e-01,4.48667311e-05,5.77140774,-4.68775474e-01,-1,-0.9999678686997916
1.17640694e+05,9.99999878e-02,-7.72533648e-14,3.46886748,1.49737996e-01,-1.84509847,7.15399990e-01,4.48674751e-05,5.77462250,-4.59042646e-01,-1,-0.9999641982740632
1.23878884e+05,9.99999874e-02,-7.54085884e-14,3.46897457,1.46087231e-01,-1.84509847,7.15399990e-01,4.48683836e-05,5.77794917,-4.48967810e-01,-1,-0.9999603176681037
1.30426477e+05,9.99999869e-02,-7.35610215e-14,3.46908309,1.42359838e-01,-1.84509847,7.15399990e-01,4.48694676e-05,5.78134665,-4.38677381e-01,-1,-0.9999562445910708
1.37314876e+05,9.99999864e-02,-7.17091265e-14,3.46919341,1.38527751e-01,-1.84509847,7.15399989e-01,4.48707754e-05,5.78484004,-4.28097682e-01,-1,-0.9999519595080241
1.44581310e+05,9.99999859e-02,-6.98635488e-14,3.46930566,1.34611772e-01,-1.84509847,7.15399989e-01,4.48723745e-05,5.78841108,-4.17276999e-01,-1,-0.9999474392598295
1.52219995e+05,9.99999854e-02,-6.80264045e-14,3.46942043,1.30585761e-01,-1.84509847,7.15399988e-01,4.48743135e-05,5.79208338,-4.06149559e-01,-1,-0.9999426874445541
1.60254898e+05,9.99999848e-02,-6.61920402e-14,3.46953645,1.26487363e-01,-1.84509847,7.15399987e-01,4.48766733e-05,5.79582265,-3.94813624e-01,-1,-0.9999376891529878
1.68707828e+05,9.99999843e-02,-6.43718184e-14,3.46965472,1.22280800e-01,-1.84509847,7.15399986e-01,4.48795572e-05,5.79966176,-3.83168291e-01,-1,-0.9999324308183533
1.77606703e+05,9.99999837e-02,-6.25382841e-14,3.46977370,1.18002130e-01,-1.84509847,7.15399985e-01,4.48830970e-05,5.80356768,-3.71314915e-01,-1,-0.9999268950736329
1.86970950e+05,9.99999831e-02,-6.07638930e-14,3.46989413,1.13619604e-01,-1.84509847,7.15399984e-01,4.48874555e-05,5.80756961,-3.59166867e-01,-1,-0.9999210698338253
1.96826667e+05,9.99999826e-02,-5.89835524e-14,3.47001615,1.09153361e-01,-1.84509847,7.15399982e-01,4.48928392e-05,5.81164915,-3.46777478e-01,-1,-0.9999149388640849
2.07201892e+05,9.99999820e-02,-5.71986387e-14,3.47013758,1.04607545e-01,-1.84509847,7.15399980e-01,4.48995102e-05,5.81580225,-3.34163799e-01,-1,-0.9999084847227449
2.18119511e+05,9.99999814e-02,-5.54854647e-14,3.47026130,9.99850149e-02,-1.84509847,7.15399977e-01,4.49077879e-05,5.82002640,-3.21330093e-01,-1,-0.9999016931730558
2.29607597e+05,9.99999807e-02,-5.37773736e-14,3.47038524,9.52934500e-02,-1.84509847,7.15399973e-01,4.49180795e-05,5.82431422,-3.08299396e-01,-1,-0.9998945467515785
2.41695067e+05,9.99999801e-02,-5.20972451e-14,3.47050902,9.05368771e-02,-1.84509847,7.15399969e-01,4.49308917e-05,5.82866224,-2.95083426e-01,-1,-0.999887027469845
2.54411570e+05,9.99999794e-02,-5.04479286e-14,3.47063259,8.57211248e-02,-1.84509847,7.15399964e-01,4.49468565e-05,5.83306481,-2.81697938e-01,-1,-0.99987911688403
2.67788604e+05,9.99999788e-02,-4.88382857e-14,3.47075574,8.08588714e-02,-1.84509847,7.15399957e-01,4.49667553e-05,5.83751044,-2.68177616e-01,-1,-0.9998707954000962
2.81859710e+05,9.99999781e-02,-4.72606870e-14,3.47087868,7.59484042e-02,-1.84509847,7.15399949e-01,4.49915778e-05,5.84200060,-2.54515936e-01,-1,-0.9998620421531126
2.96693907e+05,9.99999774e-02,-4.57199395e-14,3.47100023,7.10140461e-02,-1.84509847,7.15399938e-01,4.50228645e-05,5.84651323,-2.40783889e-01,-1,-0.9998528142082628
3.12297334e+05,9.99999767e-02,-4.42345057e-14,3.47112002,6.60646260e-02,-1.84509847,7.15399925e-01,4.50619026e-05,5.85103983,-2.27006533e-01,-1,-0.9998431077466442
3.28710171e+05,9.99999760e-02,-4.27940415e-14,3.47123779,6.11211807e-02,-1.84509847,7.15399909e-01,4.51105413e-05,5.85556185,-2.13237287e-01,-1,-0.9998328977733868
3.45982055e+05,9.99999753e-02,-4.14019909e-14,3.47135353,5.61908225e-02,-1.84509847,7.15399889e-01,4.51711653e-05,5.86007277,-1.99498677e-01,-1,-0.9998221534106818
3.64194255e+05,9.99999746e-02,-4.00629019e-14,3.47146573,5.13123623e-02,-1.84509847,7.15399864e-01,4.52471769e-05,5.86453695,-1.85896971e-01,-1,-0.9998108241033258
3.83357959e+05,9.99999738e-02,-3.87914879e-14,3.47157592,4.64933982e-02,-1.84509847,7.15399832e-01,4.53412987e-05,5.86894709,-1.72452288e-01,-1,-0.9997989028915722
4.03529498e+05,9.99999731e-02,-3.75748528e-14,3.47168111,4.17902938e-02,-1.84509847,7.15399794e-01,4.54573246e-05,5.87325161,-1.59328026e-01,-1,-0.9997863547334598
4.24768584e+05,9.99999723e-02,-3.64362400e-14,3.47178145,3.72073697e-02,-1.84509847,7.15399746e-01,4.55997388e-05,5.87744610,-1.46533171e-01,-1,-0.9997731424837999
4.47171008e+05,9.99999715e-02,-3.53716827e-14,3.47187654,3.27910347e-02,-1.84509847,7.15399688e-01,4.57743488e-05,5.88148813,-1.34198232e-01,-1,-0.9997592065536532
4.70775903e+05,9.99999707e-02,-3.43768549e-14,3.47196608,2.85866145e-02,-1.84509847,7.15399618e-01,4.59855980e-05,5.88533655,-1.22451372e-01,-1,-0.9997445225994597
4.95643173e+05,9.99999698e-02,-3.34608882e-14,3.47204893,2.46036075e-02,-1.84509847,7.15399533e-01,4.62384015e-05,5.88898252,-1.11320347e-01,-1,-0.999729053356593
5.21840451e+05,9.99999690e-02,-3.26167531e-14,3.47212496,2.08589835e-02,-1.84509847,7.15399434e-01,4.65376404e-05,5.89241053,-1.00852011e-01,-1,-0.9997127567524291
5.49480993e+05,9.99999681e-02,-3.18644035e-14,3.47219420,1.74030242e-02,-1.84509847,7.15399316e-01,4.68890942e-05,5.89557474,-9.11894077e-02,-1,-0.9996955623335336
5.78641475e+05,9.99999672e-02,-3.11848950e-14,3.47225694,1.42217316e-02,-1.84509847,7.15399181e-01,4.72963190e-05,5.89848780,-8.22926814e-02,-1,-0.9996774224018818
6.09290164e+05,9.99999662e-02,-3.05672715e-14,3.47231381,1.13018164e-02,-1.84509847,7.15399027e-01,4.77575526e-05,5.90116156,-7.41286869e-02,-1,-0.9996583566976978
6.41703666e+05,9.99999653e-02,-3.00227905e-14,3.47236456,8.66413186e-03,-1.84509847,7.15398853e-01,4.82805486e-05,5.90357701,-6.67518718e-02,-1,-0.9996381931520171
6.75714889e+05,9.99999642e-02,-2.95312149e-14,3.47241080,6.23946917e-03,-1.84509847,7.15398661e-01,4.88565781e-05,5.90579753,-5.99690684e-02,-1,-0.999617035708165
7.11682941e+05,9.99999632e-02,-2.90911612e-14,3.47245270,4.02311313e-03,-1.84509847,7.15398448e-01,4.94929970e-05,5.90782735,-5.37689034e-02,-1,-0.9995946609749583
7.49593382e+05,9.99999621e-02,-2.86881325e-14,3.47249197,1.95359165e-03,-1.84509847,7.15398218e-01,5.01842692e-05,5.90972279,-4.79774699e-02,-1,-0.9995710779351227
7.89494275e+05,9.99999610e-02,-2.83115749e-14,3.47252820,2.49860795e-06,-1.84509847,7.15397971e-01,5.09261085e-05,5.91150964,-4.25161604e-02,-1,-0.9995462566899915
8.31514528e+05,9.99999598e-02,-2.79618661e-14,3.47256275,-1.88444330e-03,-1.84509847,7.15397707e-01,5.17164283e-05,5.91323777,-3.72345553e-02,-1,-0.9995201170494529
8.75764734e+05,9.99999586e-02,-2.76255704e-14,3.47259661,-3.75156320e-03,-1.84509847,7.15397429e-01,5.25522318e-05,5.91494769,-3.20061157e-02,-1,-0.9994925902166516
9.22357106e+05,9.99999573e-02,-2.72909600e-14,3.47263061,-5.64269272e-03,-1.84509847,7.15397136e-01,5.34303364e-05,5.91667969,-2.67086177e-02,-1,-0.999463606386975
9.71402979e+05,9.99999560e-02,-2.69505374e-14,3.47266553,-7.60004454e-03,-1.84509847,7.15396830e-01,5.43473788e-05,5.91847248,-2.12242867e-02,-1,-0.99943309630199
1.02302500e+06,9.99999546e-02,-2.65964740e-14,3.47270210,-9.66548637e-03,-1.84509847,7.15396513e-01,5.52998672e-05,5.92036422,-1.54357250e-02,-1,-0.9994009836663802
1.07736123e+06,9.99999532e-02,-2.62204721e-14,3.47274104,-1.18828404e-02,-1.84509847,7.15396185e-01,5.62839500e-05,5.92239511,-9.21973810e-03,-1,-0.9993671825962053
1.13455748e+06,9.99999517e-02,-2.58137054e-14,3.47278304,-1.42996747e-02,-1.84509847,7.15395848e-01,5.72949503e-05,5.92460872,-2.44166568e-03,-1,-0.9993316023864631
1.19474550e+06,9.99999502e-02,-2.53682175e-14,3.47282837,-1.69678806e-02,-1.84509847,7.15395504e-01,5.83267812e-05,5.92705251,5.04362338e-03,-1,-0.9992941610791124
1.25800942e+06,9.99999486e-02,-2.48747722e-14,3.47287828,-1.99414867e-02,-1.84509847,7.15395156e-01,5.93716302e-05,5.92977611,1.33872567e-02,-1,-0.9992548063392
1.32438325e+06,9.99999470e-02,-2.43271051e-14,3.47293400,-2.32764600e-02,-1.84509847,7.15394806e-01,6.04200163e-05,5.93283086,2.27460034e-02,-1,-0.9992135170100432
1.39454984e+06,9.99999453e-02,-2.37092375e-14,3.47299727,-2.71396981e-02,-1.84509847,7.15394461e-01,6.14562111e-05,5.93636951,3.35929356e-02,-1,-0.9991698683094888
1.46793779e+06,9.99999436e-02,-2.30122444e-14,3.47306746,-3.15413585e-02,-1.84509847,7.15394124e-01,6.24650395e-05,5.94040133,4.59495939e-02,-1,-0.9991242156897184
1.54497166e+06,9.99999419e-02,-2.22272396e-14,3.47314950,-3.66725449e-02,-1.84509847,7.15393806e-01,6.34201603e-05,5.94510145,6.03620101e-02,-1,-0.9990762950436647
1.62562212e+06,9.99999402e-02,-2.13345737e-14,3.47324243,-4.26962994e-02,-1.84509847,7.15393516e-01,6.42898442e-05,5.95061926,7.72904649e-02,-1,-0.9990261246167119
1.70975256e+06,9.99999384e-02,-2.03374052e-14,3.47334771,-4.97460720e-02,-1.84509847,7.15393267e-01,6.50382163e-05,5.95707733,9.71164812e-02,-1,-0.9989737893901736
1.79728654e+06,9.99999367e-02,-1.92252472e-14,3.47346824,-5.79912167e-02,-1.84509847,7.15393072e-01,6.56237208e-05,5.96463038,1.20329746e-01,-1,-0.9989193369152656
1.88807477e+06,9.99999350e-02,-1.80167174e-14,3.47360226,-6.74559641e-02,-1.84509847,7.15392940e-01,6.60189985e-05,5.97330127,1.47004373e-01,-1,-0.9988628600611795
1.98220197e+06,9.99999334e-02,-1.67745062e-14,3.47374241,-7.79384049e-02,-1.84509847,7.15392870e-01,6.62293825e-05,5.98290496,1.76580368e-01,-1,-0.9988043061259402
2.08023196e+06,9.99999318e-02,-1.55529991e-14,3.47388329,-8.89952150e-02,-1.84509847,7.15392844e-01,6.63062357e-05,5.99303356,2.07805644e-01,-1,-0.9987433243726745
2.18299288e+06,9.99999303e-02,-1.44150563e-14,3.47401790,-1.00126767e-01,-1.84509847,7.15392839e-01,6.63225675e-05,6.00322759,2.39284872e-01,-1,-0.9986793996383276
2.29108845e+06,9.99999288e-02,-1.33807861e-14,3.47414050,-1.11064077e-01,-1.84509847,7.15392838e-01,6.63242766e-05,6.01332623,2.70417979e-01,-1,-0.998612156365337
2.40494705e+06,9.99999273e-02,-1.24421426e-14,3.47425218,-1.21726149e-01,-1.84509847,7.15392838e-01,6.63243514e-05,6.02318551,3.00812027e-01,-1,-0.9985413280703186
2.52486575e+06,9.99999259e-02,-1.15895222e-14,3.47435127,-1.32139845e-01,-1.84509847,7.15392838e-01,6.63243526e-05,6.03271629,3.30357936e-01,-1,-0.9984667299542184
2.65112575e+06,9.99999245e-02,-1.08103579e-14,3.47443671,-1.42332353e-01,-1.84509847,7.15392838e-01,6.63243526e-05,6.04203865,3.59301886e-01,-1,-0.9983881870902712
2.78399205e+06,9.99999231e-02,-1.00959769e-14,3.47450874,-1.52323735e-01,-1.84509847,7.15392838e-01,6.63243526e-05,6.05117247,3.87707782e-01,-1,-0.9983055346292854
2.92380226e+06,9.99999218e-02,-9.43996376e-15,3.47457209,-1.62130321e-01,-1.84509847,7.15392838e-01,6.63243526e-05,6.06013529,4.15616654e-01,-1,-0.9982185625533908
3.07097500e+06,9.99999204e-02,-8.83570672e-15,3.47462475,-1.71764900e-01,-1.84509847,7.15392838e-01,6.63243526e-05,6.06894071,4.43058544e-01,-1,-0.9981270104506302
3.22577901e+06,9.99999191e-02,-8.27996584e-15,3.47467159,-1.81244007e-01,-1.84509847,7.15392838e-01,6.63243526e-05,6.07760155,4.70082523e-01,-1,-0.9980307111452611
3.38869599e+06,9.99999178e-02,-7.76557982e-15,3.47471014,-1.90578356e-01,-1.84509847,7.15392838e-01,6.63243526e-05,6.08612720,4.96719917e-01,-1,-0.997929364984998
3.56009106e+06,9.99999166e-02,-7.28960600e-15,3.47474551,-1.99780048e-01,-1.84509847,7.15392838e-01,6.63243526e-05,6.09452901,5.23005527e-01,-1,-0.9978227448387583
3.74036561e+06,9.99999153e-02,-6.84761209e-15,3.47477997,-2.08860546e-01,-1.84509847,7.15392838e-01,6.63243526e-05,6.10281743,5.48958860e-01,-1,-0.9977106010128927
3.93004291e+06,9.99999140e-02,-6.43883832e-15,3.47481035,-2.17827715e-01,-1.84509847,7.15392838e-01,6.63243527e-05,6.11100043,5.74609876e-01,-1,-0.9975926079955653
4.12960883e+06,9.99999128e-02,-6.05795804e-15,3.47484157,-2.26690982e-01,-1.84509847,7.15392838e-01,6.63243527e-05,6.11908631,5.99989104e-01,-1,-0.9974684635404484
4.33951193e+06,9.99999116e-02,-5.70358825e-15,3.47487186,-2.35458324e-01,-1.84509847,7.15392838e-01,6.63243527e-05,6.12708158,6.25117410e-01,-1,-0.9973378886107368
4.56030148e+06,9.99999104e-02,-5.37314904e-15,3.47490494,-2.44137661e-01,-1.84509847,7.15392838e-01,6.63243527e-05,6.13499274,6.50013105e-01,-1,-0.9972005415207115
4.79253728e+06,9.99999092e-02,-5.06479406e-15,3.47493982,-2.52735447e-01,-1.84509847,7.15392838e-01,6.63243528e-05,6.14282651,6.74689833e-01,-1,-0.9970560740342307
5.03681062e+06,9.99999080e-02,-4.77670452e-15,3.47497682,-2.61257776e-01,-1.84509847,7.15392838e-01,6.63243528e-05,6.15058858,6.99165876e-01,-1,-0.9969041183260924
5.29374587e+06,9.99999068e-02,-4.50729248e-15,3.47501722,-2.69710400e-01,-1.84509847,7.15392838e-01,6.63243529e-05,6.15828428,7.23461597e-01,-1,-0.9967442859929387
5.56400946e+06,9.99999056e-02,-4.25513257e-15,3.47506469,-2.78098984e-01,-1.84509847,7.15392838e-01,6.63243530e-05,6.16591711,7.47595809e-01,-1,-0.9965761624670458
5.84827406e+06,9.99999044e-02,-4.01906385e-15,3.47511587,-2.86427256e-01,-1.84509847,7.15392838e-01,6.63243531e-05,6.17348895,7.71578687e-01,-1,-0.9963993292989578
6.14727655e+06,9.99999033e-02,-3.79762762e-15,3.47517453,-2.94699873e-01,-1.84509847,7.15392838e-01,6.63243533e-05,6.18100382,7.95419480e-01,-1,-0.9962133280959486
6.46176201e+06,9.99999021e-02,-3.58995692e-15,3.47523837,-3.02921116e-01,-1.84509847,7.15392838e-01,6.63243535e-05,6.18846453,8.19131711e-01,-1,-0.9960176953642985
6.79252768e+06,9.99999010e-02,-3.39506833e-15,3.47530849,-3.11095450e-01,-1.84509847,7.15392838e-01,6.63243538e-05,6.19587649,8.42729283e-01,-1,-0.99581193516299
7.14041877e+06,9.99998998e-02,-3.21166782e-15,3.47538789,-3.19226784e-01,-1.84509847,7.15392838e-01,6.63243542e-05,6.20324434,8.66229468e-01,-1,-0.9955955217101919
7.50632824e+06,9.99998987e-02,-3.03896885e-15,3.47547657,-3.27317168e-01,-1.84509847,7.15392838e-01,6.63243547e-05,6.21057147,8.89631270e-01,-1,-0.9953678995201144
7.89116486e+06,9.99998976e-02,-2.87733607e-15,3.47556964,-3.35366010e-01,-1.84509847,7.15392838e-01,6.63243554e-05,6.21785840,9.12928827e-01,-1,-0.995128503272003
8.29591354e+06,9.99998965e-02,-2.72502406e-15,3.47567013,-3.43374883e-01,-1.84509847,7.15392838e-01,6.63243563e-05,6.22510652,9.36126265e-01,-1,-0.9948767202805089
8.72166372e+06,9.99998953e-02,-2.58152261e-15,3.47577731,-3.51345601e-01,-1.84509847,7.15392838e-01,6.63243574e-05,6.23231645,9.59228483e-01,-1,-0.9946118728350534
9.16957788e+06,9.99998942e-02,-2.44626955e-15,3.47589041,-3.59280360e-01,-1.84509847,7.15392838e-01,6.63243588e-05,6.23948860,9.82252573e-01,-1,-0.9943332377888876
9.64067935e+06,9.99998931e-02,-2.31873564e-15,3.47601349,-3.67182145e-01,-1.84509847,7.15392838e-01,6.63243606e-05,6.24662551,1.00521072,-1,-0.9940401785566405
1.01361312e+07,9.99998920e-02,-2.19857398e-15,3.47614203,-3.75052963e-01,-1.84509847,7.15392838e-01,6.63243630e-05,6.25372769,1.02810605,-1,-0.9937319716245407
1.06571712e+07,9.99998909e-02,-2.08524596e-15,3.47627482,-3.82894951e-01,-1.84509847,7.15392838e-01,6.63243660e-05,6.26079448,1.05093552,-1,-0.993407847010007
1.12051182e+07,9.99998898e-02,-1.97779635e-15,3.47641397,-3.90711226e-01,-1.84509847,7.15392838e-01,6.63243699e-05,6.26782820,1.07371164,-1,-0.9930669842928261
1.17814717e+07,9.99998887e-02,-1.87670838e-15,3.47655888,-3.98503781e-01,-1.84509847,7.15392838e-01,6.63243749e-05,6.27483207,1.09644743,-1,-0.9927084506754019
1.23878094e+07,9.99998876e-02,-1.78111839e-15,3.47670533,-4.06273890e-01,-1.84509847,7.15392838e-01,6.63243813e-05,6.28180896,1.11914843,-1,-0.9923312647140751
1.30254256e+07,9.99998865e-02,-1.69050320e-15,3.47685753,-4.14024321e-01,-1.84509847,7.15392838e-01,6.63243894e-05,6.28876456,1.14182337,-1,-0.9919346212605101
1.36958972e+07,9.99998854e-02,-1.60489365e-15,3.47701056,-4.21754754e-01,-1.84509847,7.15392838e-01,6.63243998e-05,6.29569885,1.16447268,-1,-0.9915175393687056
1.44009061e+07,9.99998843e-02,-1.52380259e-15,3.47716593,-4.29465789e-01,-1.84509847,7.15392838e-01,6.63244130e-05,6.30261133,1.18708727,-1,-0.9910789727750556
1.51424969e+07,9.99998832e-02,-1.44698353e-15,3.47732374,-4.37158573e-01,-1.84509847,7.15392838e-01,6.63244298e-05,6.30950157,1.20967043,-1,-0.9906176495902872
1.59225666e+07,9.99998821e-02,-1.37417691e-15,3.47748002,-4.44833845e-01,-1.84509847,7.15392838e-01,6.63244512e-05,6.31636860,1.23223093,-1,-0.9901323897430164
1.67428123e+07,9.99998810e-02,-1.30527583e-15,3.47763633,-4.52492551e-01,-1.84509847,7.15392838e-01,6.63244783e-05,6.32321254,1.25477031,-1,-0.9896221375141367
1.76052660e+07,9.99998799e-02,-1.23989733e-15,3.47779230,-4.60135440e-01,-1.84509847,7.15392838e-01,6.63245127e-05,6.33003300,1.27728874,-1,-0.9890856288524876
1.85120767e+07,9.99998788e-02,-1.17789416e-15,3.47794667,-4.67762463e-01,-1.84509847,7.15392838e-01,6.63245561e-05,6.33682837,1.29978566,-1,-0.9885215269244348
1.94662998e+07,9.99998777e-02,-1.11913000e-15,3.47809904,-4.75373549e-01,-1.84509847,7.15392838e-01,6.63246112e-05,6.34359911,1.32225466,-1,-0.9879279310499018
2.04696593e+07,9.99998767e-02,-1.06336476e-15,3.47825116,-4.82969084e-01,-1.84509847,7.15392838e-01,6.63246807e-05,6.35034512,1.34470912,-1,-0.9873037687760337
2.15245883e+07,9.99998756e-02,-1.01044889e-15,3.47839716,-4.90549601e-01,-1.84509847,7.15392838e-01,6.63247683e-05,6.35706397,1.36714149,-1,-0.9866475265384215
2.26337496e+07,9.99998745e-02,-9.60234373e-16,3.47853867,-4.98115794e-01,-1.84509847,7.15392837e-01,6.63248785e-05,6.36375338,1.38955710,-1,-0.9859575478826211
2.38004379e+07,9.99998734e-02,-9.12594881e-16,3.47867640,-5.05668373e-01,-1.84509847,7.15392837e-01,6.63250173e-05,6.37041231,1.41196074,-1,-0.9852317832666251
2.50276081e+07,9.99998723e-02,-8.67351606e-16,3.47881289,-5.13207701e-01,-1.84509847,7.15392837e-01,6.63251920e-05,6.37703934,1.43435525,-1,-0.9844683945286352
2.63178184e+07,9.99998712e-02,-8.24410652e-16,3.47894270,-5.20734269e-01,-1.84509847,7.15392837e-01,6.63254111e-05,6.38363433,1.45673464,-1,-0.9836657902829823
