star_age,star_mass,star_mdot,log_Teff,log_R,log_surf_z,surface_h1,surface_he3,log_center_T,log_center_Rho,phase,x
8.50827324e+02,1.99999987,-1.33689515e-10,3.61744000,1.46870387,-1.84509867,7.15400009e-01,4.48623519e-05,5.73789071,-3.09642412,-1,-1.0
8.95489917e+02,1.99999986,-1.35249618e-10,3.61781094,1.46631198,-1.84509867,7.15400009e-01,4.48623519e-05,5.74017250,-3.08959606,-1,-0.9999950876328468
9.42555744e+02,1.99999986,-1.33292180e-10,3.61814796,1.46382665,-1.84509867,7.15400009e-01,4.48623519e-05,5.74254435,-3.08249633,-1,-0.9999899109378307
9.92002534e+02,1.99999985,-1.31511811e-10,3.61845897,1.46125453,-1.84509867,7.15400009e-01,4.48623519e-05,5.74499993,-3.07514737,-1,-0.9999844723645034
1.04397449e+03,1.99999984,-1.29610511e-10,3.61877690,1.45859225,-1.84509867,7.15400009e-01,4.48623519e-05,5.74754213,-3.06753872,-1,-0.9999787560522073
1.09860585e+03,1.99999984,-1.27586637e-10,3.61909841,1.45583739,-1.84509867,7.15400009e-01,4.48623519e-05,5.75017313,-3.05966533,-1,-0.9999727472363199
1.15603004e+03,1.99999983,-1.25486219e-10,3.61943576,1.45298749,-1.84509867,7.15400009e-01,4.48623519e-05,5.75289517,-3.05151763,-1,-0.9999664312415286
1.21640702e+03,1.99999982,-1.23378519e-10,3.61980485,1.45004008,-1.84509867,7.15400009e-01,4.48623519e-05,5.75571061,-3.04309061,-1,-0.9999597904740892
1.28024909e+03,1.99999981,-1.21228332e-10,3.62017194,1.44698277,-1.84509867,7.15400009e-01,4.48623519e-05,5.75863155,-3.03434661,-1,-0.999952768586944
1.34729626e+03,1.99999981,-1.19034181e-10,3.62053886,1.44382803,-1.84509867,7.15400009e-01,4.48623519e-05,5.76164636,-3.02532185,-1,-0.9999453941759774
1.41766609e+03,1.99999980,-1.16804656e-10,3.62093533,1.44057494,-1.84509867,7.15400009e-01,4.48623519e-05,5.76475522,-3.01601445,-1,-0.9999376543109529
1.49173322e+03,1.99999979,-1.14561645e-10,3.62133852,1.43721666,-1.84509867,7.15400009e-01,4.48623519e-05,5.76796526,-3.00640195,-1,-0.9999295077858164
1.56985182e+03,1.99999978,-1.12272850e-10,3.62174693,1.43374799,-1.84509867,7.15400009e-01,4.48623519e-05,5.77128204,-2.99647028,-1,-0.9999209156459761
1.65167856e+03,1.99999977,-1.09947215e-10,3.62217785,1.43018142,-1.84509867,7.15400009e-01,4.48623519e-05,5.77469267,-2.98625619,-1,-0.9999119156537494
1.73814323e+03,1.99999976,-1.07612746e-10,3.62260107,1.42649854,-1.84509867,7.15400009e-01,4.48623519e-05,5.77821597,-2.97570518,-1,-0.9999024055430218
1.82871227e+03,1.99999975,-1.05275059e-10,3.62305228,1.42271692,-1.84509867,7.15400009e-01,4.48623519e-05,5.78183420,-2.96486956,-1,-0.999892443999204
1.92436789e+03,1.99999974,-1.02921092e-10,3.62350291,1.41881859,-1.84509867,7.15400009e-01,4.48623519e-05,5.78556544,-2.95369506,-1,-0.9998819229905894
2.02462945e+03,1.99999973,-1.00539715e-10,3.62398892,1.41481822,-1.84509867,7.15400009e-01,4.48623519e-05,5.78939481,-2.94222769,-1,-0.9998708953820029
2.13034250e+03,1.99999972,-9.82017231e-11,3.62450040,1.41070170,-1.84509867,7.15400009e-01,4.48623519e-05,5.79333615,-2.93042453,-1,-0.9998592681727525
2.24148786e+03,1.99999971,-9.58198948e-11,3.62503610,1.40647551,-1.84509867,7.15400009e-01,4.48623519e-05,5.79738319,-2.91830164,-1,-0.9998470434724158
2.35821593e+03,1.99999970,-9.34514151e-11,3.62553705,1.40214400,-1.84509867,7.15400009e-01,4.48623519e-05,5.80153247,-2.90587163,-1,-0.9998342047387373
2.48095608e+03,1.99999969,-9.10635918e-11,3.62605920,1.39770391,-1.84509867,7.15400009e-01,4.48623519e-05,5.80578655,-2.89312688,-1,-0.9998207047459978
2.61027311e+03,1.99999968,-8.86753118e-11,3.62657394,1.39315177,-1.84509867,7.15400009e-01,4.48623519e-05,5.81014946,-2.88005460,-1,-0.9998064813727487
2.74622112e+03,1.99999967,-8.63032036e-11,3.62714501,1.38849060,-1.84509867,7.15400009e-01,4.48623519e-05,5.81461777,-2.86666471,-1,-0.9997915286686176
2.88912411e+03,1.99999965,-8.39379133e-11,3.62771751,1.38372224,-1.84509867,7.15400009e-01,4.48623519e-05,5.81919032,-2.85296017,-1,-0.9997758109973629
3.03936213e+03,1.99999964,-8.15821312e-11,3.62827214,1.37884777,-1.84509867,7.15400009e-01,4.48623519e-05,5.82386642,-2.83894530,-1,-0.9997592865578929
3.19733623e+03,1.99999963,-7.92444017e-11,3.62883436,1.37386869,-1.84509867,7.15400009e-01,4.48623519e-05,5.82864463,-2.82462371,-1,-0.99974191123936
3.36344867e+03,1.99999962,-7.69107828e-11,3.62942657,1.36878445,-1.84509867,7.15400009e-01,4.48623519e-05,5.83352515,-2.80999394,-1,-0.99972364079783
3.53809845e+03,1.99999960,-7.46231995e-11,3.63004124,1.36359560,-1.84509867,7.15400009e-01,4.48623519e-05,5.83850729,-2.79505827,-1,-0.9997044313479315
3.72169380e+03,1.99999959,-7.23577565e-11,3.63068096,1.35830310,-1.84509867,7.15400009e-01,4.48623519e-05,5.84359021,-2.77982093,-1,-0.9996842379890998
3.91466852e+03,1.99999958,-7.01198639e-11,3.63127787,1.35291207,-1.84509867,7.15400009e-01,4.48623519e-05,5.84876942,-2.76429196,-1,-0.9996630130083668
4.11784940e+03,1.99999956,-6.79000807e-11,3.63191757,1.34741790,-1.84509867,7.15400009e-01,4.48623519e-05,5.85404909,-2.74846097,-1,-0.9996406654684231
4.33135220e+03,1.99999955,-6.57149668e-11,3.63256175,1.34183140,-1.84509867,7.15400009e-01,4.48623519e-05,5.85941885,-2.73235702,-1,-0.9996171826370116
4.55565642e+03,1.99999953,-6.35831675e-11,3.63321710,1.33614873,-1.84509867,7.15400009e-01,4.48623520e-05,5.86488320,-2.71596854,-1,-0.9995925117746944
4.79147204e+03,1.99999952,-6.14619986e-11,3.63386096,1.33036963,-1.84509866,7.15400008e-01,4.48623520e-05,5.87042779,-2.69931818,-1,-0.999566574791907
5.03970348e+03,1.99999950,-5.93749594e-11,3.63456082,1.32451509,-1.84509866,7.15400008e-01,4.48623520e-05,5.87596621,-2.68258933,-1,-0.9995392722129406
5.30021356e+03,1.99999949,-5.73600744e-11,3.63523094,1.31856248,-1.84509866,7.15400008e-01,4.48623520e-05,5.88167017,-2.66544652,-1,-0.9995106191260038
5.57439167e+03,1.99999947,-5.53515301e-11,3.63588921,1.31250862,-1.84509866,7.15400008e-01,4.48623521e-05,5.88749936,-2.64795578,-1,-0.9994804627143135
5.86240622e+03,1.99999946,-5.33818599e-11,3.63660096,1.30637746,-1.84509865,7.15400008e-01,4.48623521e-05,5.89339210,-2.63026349,-1,-0.999448784454723
6.16533759e+03,1.99999944,-5.14884223e-11,3.63729567,1.30015957,-1.84509865,7.15400007e-01,4.48623522e-05,5.89938094,-2.61229125,-1,-0.9994154655179645
6.48345396e+03,1.99999943,-4.96009369e-11,3.63798508,1.29387068,-1.84509865,7.15400007e-01,4.48623524e-05,5.90544093,-2.59410434,-1,-0.9993804764073487
6.81824657e+03,1.99999941,-4.77810764e-11,3.63869753,1.28748560,-1.84509864,7.15400007e-01,4.48623527e-05,5.91159661,-2.57562744,-1,-0.999343653103774
7.16980872e+03,1.99999939,-4.60001076e-11,3.63944580,1.28102090,-1.84509864,7.15400006e-01,4.48623532e-05,5.91783105,-2.55691310,-1,-0.9993049853453226
7.53957958e+03,1.99999938,-4.42743831e-11,3.64018619,1.27448141,-1.84509863,7.15400006e-01,4.48623541e-05,5.92413968,-2.53797246,-1,-0.9992643148399885
7.92812217e+03,1.99999936,-4.25692288e-11,3.64088578,1.26786820,-1.84509863,7.15400005e-01,4.48623556e-05,5.93052173,-2.51880987,-1,-0.9992215796621025
8.33648382e+03,1.99999934,-4.09334617e-11,3.64165480,1.26118202,-1.84509862,7.15400005e-01,4.48623578e-05,5.93697508,-2.49942949,-1,-0.9991766646175134
8.76549526e+03,1.99999933,-3.93419892e-11,3.64239529,1.25442839,-1.84509861,7.15400004e-01,4.48623611e-05,5.94349646,-2.47984565,-1,-0.9991294783355578
9.21684577e+03,1.99999931,-3.77871716e-11,3.64314648,1.24760843,-1.84509861,7.15400003e-01,4.48623662e-05,5.95008447,-2.46006004,-1,-0.9990798350150307
9.69114085e+03,1.99999929,-3.62926118e-11,3.64391979,1.24072230,-1.84509860,7.15400003e-01,4.48623739e-05,5.95673950,-2.44007399,-1,-0.999027668057956
1.01893935e+04,1.99999927,-3.48276194e-11,3.64466315,1.23377695,-1.84509859,7.15400002e-01,4.48623851e-05,5.96345449,-2.41990443,-1,-0.9989728660460842
1.07130813e+04,1.99999926,-3.34209153e-11,3.64543801,1.22676437,-1.84509858,7.15400001e-01,4.48624043e-05,5.97023731,-2.39953223,-1,-0.9989152664627547
1.12632422e+04,1.99999924,-3.20457861e-11,3.64616739,1.21970390,-1.84509857,7.15400000e-01,4.48624409e-05,5.97706898,-2.37901256,-1,-0.9988547551455078
1.18417921e+04,1.99999922,-3.07368378e-11,3.64698329,1.21258195,-1.84509856,7.15399999e-01,4.48625146e-05,5.98396232,-2.35830903,-1,-0.9987911213675675
1.24497549e+04,1.99999920,-2.94575667e-11,3.64776276,1.20541315,-1.84509855,7.15399998e-01,4.48626308e-05,5.99090370,-2.33745984,-1,-0.9987242525118107
1.30885123e+04,1.99999918,-2.82229110e-11,3.64850046,1.19819141,-1.84509854,7.15399997e-01,4.48627906e-05,5.99789993,-2.31644556,-1,-0.9986539966072651
1.37598677e+04,1.99999917,-2.70230243e-11,3.64924416,1.19092361,-1.84509853,7.15399996e-01,4.48629980e-05,6.00494396,-2.29528583,-1,-0.9985801553008494
1.44657127e+04,1.99999915,-2.58774687e-11,3.65005728,1.18359945,-1.84509852,7.15399995e-01,4.48632395e-05,6.01204552,-2.27395728,-1,-0.998502520538506
1.52073170e+04,1.99999913,-2.47785149e-11,3.65084368,1.17623665,-1.84509851,7.15399995e-01,4.48635427e-05,6.01918693,-2.25250785,-1,-0.9984209526679632
1.59865510e+04,1.99999911,-2.37087730e-11,3.65158658,1.16883890,-1.84509851,7.15399994e-01,4.48640340e-05,6.02636479,-2.23095139,-1,-0.998335245966917
1.68059918e+04,1.99999909,-2.26751035e-11,3.65240442,1.16140020,-1.84509850,7.15399993e-01,4.48647459e-05,6.03358497,-2.20926350,-1,-0.9982451169842615
1.76668797e+04,1.99999907,-2.16995880e-11,3.65316723,1.15392945,-1.84509850,7.15399993e-01,4.48658516e-05,6.04084052,-2.18747056,-1,-0.9981504293013839
1.85714859e+04,1.99999905,-2.07477353e-11,3.65391142,1.14643634,-1.84509849,7.15399992e-01,4.48677458e-05,6.04812152,-2.16560587,-1,-0.9980509331126294
1.95226429e+04,1.99999903,-1.98304087e-11,3.65472068,1.13890114,-1.84509849,7.15399990e-01,4.48708452e-05,6.05544600,-2.14361433,-1,-0.9979463168758547
2.05217784e+04,1.99999901,-1.89623702e-11,3.65547470,1.13134871,-1.84509848,7.15399989e-01,4.48749732e-05,6.06279017,-2.12156739,-1,-0.9978364235606206
2.15721561e+04,1.99999900,-1.81241902e-11,3.65626005,1.12378715,-1.84509848,7.15399986e-01,4.48809714e-05,6.07014570,-2.09948306,-1,-0.9977208941977856
2.26758985e+04,1.99999898,-1.73262611e-11,3.65703794,1.11620520,-1.84509848,7.15399984e-01,4.48876509e-05,6.07752429,-2.07733033,-1,-0.9975994953369701
2.38360095e+04,1.99999896,-1.65565472e-11,3.65781426,1.10862862,-1.84509848,7.15399981e-01,4.48977637e-05,6.08490075,-2.05518330,-1,-0.9974718965840188
2.50562263e+04,1.99999894,-1.58263472e-11,3.65857838,1.10106270,-1.84509848,7.15399976e-01,4.49122877e-05,6.09226988,-2.03306199,-1,-0.9973376868902823
2.63386623e+04,1.99999892,-1.51263932e-11,3.65931308,1.09351854,-1.84509848,7.15399969e-01,4.49315053e-05,6.09962004,-2.01099696,-1,-0.9971966338062758
2.76873235e+04,1.99999890,-1.44604829e-11,3.66007836,1.08601321,-1.84509848,7.15399960e-01,4.49593245e-05,6.10693467,-1.98903698,-1,-0.9970482967184678
2.91050921e+04,1.99999888,-1.38292916e-11,3.66081377,1.07856458,-1.84509848,7.15399946e-01,4.50012238e-05,6.11419676,-1.96723352,-1,-0.9968923586182916
3.05961634e+04,1.99999886,-1.32287440e-11,3.66153516,1.07119889,-1.84509847,7.15399929e-01,4.50510787e-05,6.12138082,-1.94566635,-1,-0.9967283580714116
3.21649159e+04,1.99999884,-1.26641983e-11,3.66225904,1.06393855,-1.84509847,7.15399902e-01,4.51309531e-05,6.12846426,-1.92440607,-1,-0.9965558134936174
3.38153051e+04,1.99999882,-1.21349365e-11,3.66292794,1.05682700,-1.84509847,7.15399864e-01,4.52469488e-05,6.13540451,-1.90357707,-1,-0.9963742898257922
3.55531251e+04,1.99999880,-1.16382853e-11,3.66361409,1.04988923,-1.84509847,7.15399801e-01,4.54349085e-05,6.14217662,-1.88325219,-1,-0.9961831497841462
3.73825716e+04,1.99999878,-1.11748876e-11,3.66423637,1.04318949,-1.84509847,7.15399721e-01,4.56757617e-05,6.14871929,-1.86361178,-1,-0.9959819318903489
3.93097427e+04,1.99999875,-1.07472745e-11,3.66484215,1.03676415,-1.84509847,7.15399641e-01,4.59162528e-05,6.15499676,-1.84477062,-1,-0.9957699654241366
4.13399161e+04,1.99999873,-1.03608370e-11,3.66545740,1.03064851,-1.84509847,7.15399531e-01,4.62443924e-05,6.16097319,-1.82683526,-1,-0.99554666989973
4.34777995e+04,1.99999871,-1.00015496e-11,3.66597452,1.02488665,-1.84509847,7.15399404e-01,4.66255178e-05,6.16660535,-1.80993318,-1,-0.995311527524737
4.57327737e+04,1.99999869,-9.67929205e-12,3.66647547,1.01949803,-1.84509847,7.15399219e-01,4.71820472e-05,6.17187307,-1.79412384,-1,-0.9950635065199732
4.81089268e+04,1.99999867,-9.39024164e-12,3.66698019,1.01448685,-1.84509847,7.15398984e-01,4.78861563e-05,6.17677261,-1.77941910,-1,-0.9948021572418597
5.06109594e+04,1.99999864,-9.13061448e-12,3.66742733,1.00982517,-1.84509847,7.15398688e-01,4.87752380e-05,6.18133155,-1.76573680,-1,-0.9945269626789226
5.32467523e+04,1.99999862,-8.89264657e-12,3.66781794,1.00547335,-1.84509847,7.15398396e-01,4.96494649e-05,6.18558883,-1.75296069,-1,-0.9942370560345772
5.60239159e+04,1.99999860,-8.67390953e-12,3.66818184,1.00136666,-1.84509847,7.15398020e-01,5.07784669e-05,6.18960734,-1.74090265,-1,-0.993931600253103
5.89482703e+04,1.99999857,-8.46937376e-12,3.66854899,9.97421461e-01,-1.84509847,7.15397624e-01,5.19655436e-05,6.19346872,-1.72931732,-1,-0.9936099551910117
6.20234258e+04,1.99999855,-8.27576896e-12,3.66892201,9.93515129e-01,-1.84509847,7.15397173e-01,5.33206272e-05,6.19729312,-1.71784234,-1,-0.9932717237571821
6.52541505e+04,1.99999852,-8.08270171e-12,3.66931424,9.89558518e-01,-1.84509847,7.15396697e-01,5.47487092e-05,6.20116701,-1.70622022,-1,-0.9929163815159231
6.86597198e+04,1.99999849,-7.88899847e-12,3.66967794,9.85425622e-01,-1.84509847,7.15396196e-01,5.62505729e-05,6.20521450,-1.69407850,-1,-0.9925418083968255
7.22358262e+04,1.99999847,-7.68411128e-12,3.67006781,9.81004090e-01,-1.84509847,7.15395710e-01,5.77073127e-05,6.20954514,-1.68108786,-1,-0.9921484781749231
7.59891892e+04,1.99999844,-7.46522290e-12,3.67051948,9.76169780e-01,-1.84509847,7.15395193e-01,5.92592203e-05,6.21428057,-1.66688388,-1,-0.9917356517831608
7.99268904e+04,1.99999841,-7.22751242e-12,3.67100862,9.70784198e-01,-1.84509847,7.15394688e-01,6.07756427e-05,6.21955650,-1.65105689,-1,-0.9913025503276837
8.40517107e+04,1.99999838,-6.96721721e-12,3.67155862,9.64717097e-01,-1.84509847,7.15394175e-01,6.23136279e-05,6.22550090,-1.63322214,-1,-0.9908488679417495
8.83683891e+04,1.99999835,-6.68151394e-12,3.67217144,9.57803504e-01,-1.84509847,7.15393682e-01,6.37912750e-05,6.23227657,-1.61289246,-1,-0.9903740833903298
9.28747846e+04,1.99999832,-6.36695601e-12,3.67285760,9.49958776e-01,-1.84509847,7.15393389e-01,6.46723403e-05,6.23996733,-1.58981849,-1,-0.9898784321585894
9.75728319e+04,1.99999829,-6.03261058e-12,3.67363847,9.41127667e-01,-1.84509847,7.15393142e-01,6.54113944e-05,6.24862802,-1.56383979,-1,-0.9893617014519704
1.02469536e+05,1.99999826,-5.68422124e-12,3.67450536,9.31419683e-01,-1.84509847,7.15392973e-01,6.59185358e-05,6.25815110,-1.53527381,-1,-0.9888231208017294
1.07578029e+05,1.99999824,-5.33546716e-12,3.67541817,9.21092065e-01,-1.84509847,7.15392882e-01,6.61930970e-05,6.26828560,-1.50487383,-1,-0.988261245829196
1.12922283e+05,1.99999821,-4.99807812e-12,3.67631526,9.10496458e-01,-1.84509847,7.15392848e-01,6.62954743e-05,6.27868773,-1.47367472,-1,-0.9876734398814415
1.18537527e+05,1.99999818,-4.68358546e-12,3.67726476,8.99897701e-01,-1.84509847,7.15392839e-01,6.63205799e-05,6.28909680,-1.44245523,-1,-0.9870558281771152
1.24431160e+05,1.99999815,-4.39341826e-12,3.67812444,8.89429292e-01,-1.84509847,7.15392838e-01,6.63240345e-05,6.29938280,-1.41160018,-1,-0.9864075969120442
1.30627075e+05,1.99999813,-4.12263923e-12,3.67894609,8.79108247e-01,-1.84509847,7.15392838e-01,6.63243413e-05,6.30970401,-1.38086021,-1,-0.9857261181333818
1.37141231e+05,1.99999810,-3.87045567e-12,3.67980809,8.68863620e-01,-1.84509847,7.15392838e-01,6.63243524e-05,6.31977500,-1.35066016,-1,-0.9850096365362497
1.43983383e+05,1.99999808,-3.63676290e-12,3.68061162,8.58751454e-01,-1.84509847,7.15392838e-01,6.63243526e-05,6.32971805,-1.32083938,-1,-0.9842570791838036
1.51181103e+05,1.99999805,-3.42009452e-12,3.68142445,8.48757180e-01,-1.84509847,7.15392838e-01,6.63243526e-05,6.33954934,-1.29136054,-1,-0.983465413475873
1.58745852e+05,1.99999803,-3.21759646e-12,3.68221935,8.38875076e-01,-1.84509847,7.15392838e-01,6.63243526e-05,6.34927344,-1.26220410,-1,-0.9826333788354032
1.66693365e+05,1.99999800,-3.02837863e-12,3.68297121,8.29103341e-01,-1.84509847,7.15392838e-01,6.63243526e-05,6.35889202,-1.23336355,-1,-0.981759244594917
1.75046933e+05,1.99999798,-2.85248727e-12,3.68371316,8.19433884e-01,-1.84509847,7.15392838e-01,6.63243526e-05,6.36841187,-1.20481480,-1,-0.9808404490145851
1.83825490e+05,1.99999795,-2.68752563e-12,3.68443140,8.09861653e-01,-1.84509847,7.15392838e-01,6.63243526e-05,6.37783834,-1.17654602,-1,-0.9798749095740381
1.93055104e+05,1.99999793,-2.53447950e-12,3.68516654,8.00372862e-01,-1.84509847,7.15392838e-01,6.63243526e-05,6.38718536,-1.14851983,-1,-0.9788597590956595
2.02753142e+05,1.99999791,-2.39018222e-12,3.68586880,7.90971208e-01,-1.84509847,7.15392838e-01,6.63243526e-05,6.39644809,-1.12074685,-1,-0.9777930874109027
2.12939843e+05,1.99999788,-2.25468624e-12,3.68651346,7.81657876e-01,-1.84509847,7.15392838e-01,6.63243526e-05,6.40562599,-1.09322497,-1,-0.976672668464536
2.23659449e+05,1.99999786,-2.12930816e-12,3.68724862,7.72405601e-01,-1.84509847,7.15392838e-01,6.63243526e-05,6.41474577,-1.06587940,-1,-0.9754936361497576
2.34911821e+05,1.99999784,-2.01041809e-12,3.68787768,7.63237026e-01,-1.84509847,7.15392838e-01,6.63243526e-05,6.42378487,-1.03877758,-1,-0.9742560057549551
2.46745660e+05,1.99999781,-1.89951569e-12,3.68855381,7.54129105e-01,-1.84509847,7.15392838e-01,6.63243527e-05,6.43276565,-1.01184654,-1,-0.9729544207350499
2.59171798e+05,1.99999779,-1.79477445e-12,3.68915773,7.45093648e-01,-1.84509847,7.15392838e-01,6.63243527e-05,6.44167753,-9.85117172e-01,-1,-0.9715876896956912
2.72229132e+05,1.99999777,-1.69595644e-12,3.68975037,7.36121539e-01,-1.84509847,7.15392838e-01,6.63243527e-05,6.45052934,-9.58573915e-01,-1,-0.9701515344180761
2.85960372e+05,1.99999775,-1.60370528e-12,3.69039454,7.27199242e-01,-1.84509847,7.15392838e-01,6.63243527e-05,6.45933351,-9.32173172e-01,-1,-0.9686412572976317
3.00384958e+05,1.99999772,-1.51694395e-12,3.69096532,7.18339632e-01,-1.84509847,7.15392838e-01,6.63243527e-05,6.46807407,-9.05951531e-01,-1,-0.9670547201598582
3.15562476e+05,1.99999770,-1.43664678e-12,3.69166750,7.09513811e-01,-1.84732149,7.15422857e-01,6.63218595e-05,6.47667400,-8.79710008e-01,-1,-0.9653853692359408
3.31481221e+05,1.99999768,-1.35983346e-12,3.69221926,7.00753401e-01,-1.84781145,7.15425252e-01,6.63216521e-05,6.48505723,-8.53457742e-01,-1,-0.9636344919401039
3.48182724e+05,1.99999766,-1.28493258e-12,3.69265154,6.92067180e-01,-1.84509851,7.15392839e-01,6.63243528e-05,6.49321812,-8.27208663e-01,-1,-0.9617975203440985
3.65779116e+05,1.99999764,-1.21680712e-12,3.69324713,6.83407579e-01,-1.84509854,7.15392840e-01,6.63243527e-05,6.50122008,-8.00819298e-01,-1,-0.9598621213386211
3.84256426e+05,1.99999761,-1.15232410e-12,3.69376202,6.74807289e-01,-1.84509859,7.15392841e-01,6.63243527e-05,6.50904444,-7.74366685e-01,-1,-0.9578298315716113
4.03665650e+05,1.99999759,-1.09113827e-12,3.69426472,6.66260072e-01,-1.84509864,7.15392843e-01,6.63243526e-05,6.51670524,-7.47815543e-01,-1,-0.9556950420746118
4.24065581e+05,1.99999757,-1.03360976e-12,3.69479101,6.57761403e-01,-1.84509859,7.15392842e-01,6.63243529e-05,6.52421629,-7.21144151e-01,-1,-0.9534512862996094
4.45505898e+05,1.99999755,-9.79734772e-13,3.69527505,6.49318490e-01,-1.84509862,7.15392841e-01,6.63243531e-05,6.53158429,-6.94354937e-01,-1,-0.9510931001328704
4.68030468e+05,1.99999753,-9.28723318e-13,3.69576249,6.40928090e-01,-1.84509853,7.15392840e-01,6.63243535e-05,6.53882532,-6.67428372e-01,-1,-0.9486156587132428
4.91697253e+05,1.99999751,-8.80599892e-13,3.69624188,6.32592890e-01,-1.84509864,7.15392843e-01,6.63243533e-05,6.54594772,-6.40360732e-01,-1,-0.946012586893074
5.16584456e+05,1.99999749,-8.35429028e-13,3.69672756,6.24312343e-01,-1.84509857,7.15392841e-01,6.63243538e-05,6.55296002,-6.13132645e-01,-1,-0.9432752832495025
