star_age,star_mass,star_mdot,log_Teff,log_R,log_surf_z,surface_h1,surface_he3,log_center_T,log_center_Rho,phase,x
6.64115400e+02,2.69999982,-2.35388501e-10,3.61474344,1.59385952,-1.84509858,7.15400001e-01,4.48623524e-05,5.73903588,-3.34662997,-1,-1.0
6.97397488e+02,2.69999981,-2.32469702e-10,3.61801219,1.59119498,-1.84509858,7.15400001e-01,4.48623524e-05,5.74126864,-3.33994675,-1,-0.9999926637822989
7.33203421e+02,2.69999980,-2.35002646e-10,3.61868544,1.58869052,-1.84509858,7.15400001e-01,4.48623524e-05,5.74364462,-3.33283330,-1,-0.9999847712450436
7.71079244e+02,2.69999980,-2.31554110e-10,3.61899765,1.58611376,-1.84509858,7.15400001e-01,4.48623524e-05,5.74611994,-3.32542201,-1,-0.9999764224514481
8.10807381e+02,2.69999979,-2.28305949e-10,3.61932957,1.58345107,-1.84509858,7.15400001e-01,4.48623524e-05,5.74867834,-3.31775990,-1,-0.9999676653607906
8.52504461e+02,2.69999978,-2.24909860e-10,3.61966665,1.58069973,-1.84509858,7.15400001e-01,4.48623524e-05,5.75132225,-3.30984219,-1,-0.9999584742650763
8.96282365e+02,2.69999977,-2.21335483e-10,3.62004082,1.57785577,-1.84509858,7.15400001e-01,4.48623524e-05,5.75405492,-3.30165803,-1,-0.9999488245028908
9.42486739e+02,2.69999976,-2.17691187e-10,3.62041298,1.57490812,-1.84509858,7.15400001e-01,4.48623524e-05,5.75688800,-3.29317170,-1,-0.9999386398850746
9.91051761e+02,2.69999975,-2.13922352e-10,3.62079786,1.57186267,-1.84509858,7.15400001e-01,4.48623524e-05,5.75981577,-3.28440080,-1,-0.9999279349204687
1.04199410e+03,2.69999974,-2.10085592e-10,3.62117274,1.56872292,-1.84509858,7.15400001e-01,4.48623524e-05,5.76283479,-3.27535668,-1,-0.9999167059348022
1.09539895e+03,2.69999972,-2.06192354e-10,3.62156063,1.56548850,-1.84509858,7.15400001e-01,4.48623524e-05,5.76594534,-3.26603908,-1,-0.999904934149153
1.15188716e+03,2.69999971,-2.02262237e-10,3.62200877,1.56213803,-1.84509858,7.15400001e-01,4.48623524e-05,5.76916735,-3.25638492,-1,-0.9998924827126295
1.21104259e+03,2.69999970,-1.98294266e-10,3.62244657,1.55869244,-1.84509857,7.15400001e-01,4.48623524e-05,5.77248175,-3.24645468,-1,-0.9998794433530592
1.27323015e+03,2.69999969,-1.94316239e-10,3.62288109,1.55514340,-1.84509857,7.15400001e-01,4.48623524e-05,5.77589611,-3.23622442,-1,-0.9998657356350081
1.33866146e+03,2.69999968,-1.90234521e-10,3.62336150,1.55148634,-1.84509857,7.15400001e-01,4.48623524e-05,5.77941486,-3.22568242,-1,-0.999851312912052
1.40734843e+03,2.69999966,-1.86175989e-10,3.62383569,1.54772586,-1.84509857,7.15400001e-01,4.48623524e-05,5.78303367,-3.21483922,-1,-0.9998361725589243
1.47954270e+03,2.69999965,-1.82089440e-10,3.62430879,1.54386004,-1.84509857,7.15400001e-01,4.48623524e-05,5.78675481,-3.20368827,-1,-0.9998202591077764
1.55550963e+03,2.69999964,-1.77969410e-10,3.62478058,1.53988653,-1.84509857,7.15400000e-01,4.48623524e-05,5.79058065,-3.19222407,-1,-0.999803514066523
1.63516142e+03,2.69999962,-1.73769488e-10,3.62526697,1.53581175,-1.84509857,7.15400000e-01,4.48623524e-05,5.79450446,-3.18046639,-1,-0.9997859567885145
1.71901870e+03,2.69999961,-1.69622231e-10,3.62582706,1.53162402,-1.84509857,7.15400000e-01,4.48623524e-05,5.79853734,-3.16837878,-1,-0.9997674725136728
1.80717188e+03,2.69999959,-1.65535987e-10,3.62635866,1.52732898,-1.84509857,7.15400000e-01,4.48623524e-05,5.80267492,-3.15597715,-1,-0.999748041313337
1.89972789e+03,2.69999958,-1.61396813e-10,3.62689430,1.52293023,-1.84509857,7.15400000e-01,4.48623524e-05,5.80691324,-3.14327042,-1,-0.9997276396174187
1.99693622e+03,2.69999956,-1.57239274e-10,3.62745076,1.51842581,-1.84509857,7.15400000e-01,4.48623524e-05,5.81125424,-3.13025412,-1,-0.9997062124319839
2.09908224e+03,2.69999955,-1.53137976e-10,3.62803196,1.51381438,-1.84509857,7.15400000e-01,4.48623524e-05,5.81569929,-3.11692515,-1,-0.9996836968542347
2.20642727e+03,2.69999953,-1.48998204e-10,3.62864048,1.50909670,-1.84509857,7.15400000e-01,4.48623524e-05,5.82024754,-3.10328484,-1,-0.9996600352826048
2.31923574e+03,2.69999952,-1.44895136e-10,3.62921727,1.50427420,-1.84509857,7.15400000e-01,4.48623524e-05,5.82489835,-3.08933793,-1,-0.9996351694300044
2.43776580e+03,2.69999950,-1.40851268e-10,3.62979592,1.49934930,-1.84509857,7.15400000e-01,4.48623524e-05,5.82964925,-3.07509166,-1,-0.9996090423936154
2.56233206e+03,2.69999948,-1.36839114e-10,3.63043213,1.49431921,-1.84509857,7.15400000e-01,4.48623524e-05,5.83450175,-3.06053788,-1,-0.9995815848254013
2.69319528e+03,2.69999946,-1.32798958e-10,3.63103601,1.48918929,-1.84509857,7.15400000e-01,4.48623524e-05,5.83945246,-3.04568939,-1,-0.9995527392472338
2.83068855e+03,2.69999945,-1.28868070e-10,3.63168814,1.48395695,-1.84509857,7.15400000e-01,4.48623524e-05,5.84450255,-3.03053740,-1,-0.9995224322376149
2.97509122e+03,2.69999943,-1.24939027e-10,3.63233589,1.47862682,-1.84509856,7.15400000e-01,4.48623524e-05,5.84964834,-3.01509806,-1,-0.9994906022207082
3.12675851e+03,2.69999941,-1.21111644e-10,3.63303302,1.47319607,-1.84509856,7.15400000e-01,4.48623524e-05,5.85489218,-2.99936130,-1,-0.9994571708970013
3.28596620e+03,2.69999939,-1.17335160e-10,3.63370692,1.46767060,-1.84509856,7.15400000e-01,4.48623524e-05,5.86022881,-2.98334721,-1,-0.9994220774775764
3.45345508e+03,2.69999937,-1.13576233e-10,3.63437252,1.46204871,-1.84509856,7.15400000e-01,4.48623524e-05,5.86566024,-2.96704569,-1,-0.9993851586734981
3.62931932e+03,2.69999935,-1.09866250e-10,3.63505346,1.45633454,-1.84509856,7.15400000e-01,4.48623524e-05,5.87118221,-2.95047279,-1,-0.9993463937273064
3.81385953e+03,2.69999933,-1.06212197e-10,3.63572626,1.45053217,-1.84509856,7.15399999e-01,4.48623524e-05,5.87679099,-2.93363725,-1,-0.9993057163769202
4.00794758e+03,2.69999931,-1.02677901e-10,3.63649963,1.44463205,-1.84509856,7.15399999e-01,4.48623524e-05,5.88249466,-2.91651289,-1,-0.9992629344400425
4.21172180e+03,2.69999929,-9.91543020e-11,3.63718601,1.43866656,-1.84509856,7.15399999e-01,4.48623524e-05,5.88820735,-2.89929247,-1,-0.9992180174252271
4.42562865e+03,2.69999927,-9.57172887e-11,3.63790089,1.43261078,-1.84509856,7.15399999e-01,4.48623525e-05,5.89403459,-2.88175758,-1,-0.999170866921348
4.65050977e+03,2.69999925,-9.23751997e-11,3.63860899,1.42648004,-1.84509856,7.15399999e-01,4.48623525e-05,5.89994805,-2.86397546,-1,-0.9991212974095681
4.88656633e+03,2.69999923,-8.91099538e-11,3.63937907,1.42029051,-1.84509856,7.15399999e-01,4.48623525e-05,5.90592177,-2.84602106,-1,-0.9990692645469087
5.13458877e+03,2.69999921,-8.59122570e-11,3.64010695,1.41397670,-1.84509856,7.15399999e-01,4.48623525e-05,5.91203447,-2.82766351,-1,-0.9990145941003133
5.39497420e+03,2.69999919,-8.27655914e-11,3.64086279,1.40761042,-1.84509856,7.15399999e-01,4.48623525e-05,5.91819778,-2.80914960,-1,-0.9989571985366498
5.66852083e+03,2.69999916,-7.97421408e-11,3.64167128,1.40115315,-1.84509855,7.15399999e-01,4.48623526e-05,5.92445067,-2.79036592,-1,-0.9988969019101559
5.95581087e+03,2.69999914,-7.67683224e-11,3.64240857,1.39462763,-1.84509855,7.15399999e-01,4.48623528e-05,5.93077260,-2.77137375,-1,-0.9988335758869573
6.25735848e+03,2.69999912,-7.38601949e-11,3.64319516,1.38802896,-1.84509855,7.15399999e-01,4.48623530e-05,5.93716776,-2.75216199,-1,-0.9987671071331282
6.57415665e+03,2.69999910,-7.10350584e-11,3.64398254,1.38135877,-1.84509855,7.15399999e-01,4.48623534e-05,5.94363409,-2.73273568,-1,-0.9986972767684462
6.90696441e+03,2.69999907,-6.83175732e-11,3.64477532,1.37461877,-1.84509855,7.15399998e-01,4.48623541e-05,5.95017057,-2.71309547,-1,-0.998623917483417
7.25637802e+03,2.69999905,-6.56549466e-11,3.64558710,1.36781473,-1.84509855,7.15399998e-01,4.48623550e-05,5.95677115,-2.69326294,-1,-0.9985468978471889
7.62312732e+03,2.69999903,-6.30915008e-11,3.64637228,1.36094994,-1.84509854,7.15399998e-01,4.48623563e-05,5.96343315,-2.67324460,-1,-0.9984660569844849
8.00827846e+03,2.69999900,-6.05870558e-11,3.64717734,1.35402533,-1.84509854,7.15399998e-01,4.48623583e-05,5.97015586,-2.65304703,-1,-0.9983811598887603
8.41306224e+03,2.69999898,-5.81607827e-11,3.64798626,1.34705589,-1.84509854,7.15399998e-01,4.48623618e-05,5.97692487,-2.63270749,-1,-0.9982919352604277
8.83803292e+03,2.69999895,-5.58267631e-11,3.64879579,1.34002119,-1.84509854,7.15399997e-01,4.48623678e-05,5.98375989,-2.61217505,-1,-0.9981982609265023
9.28420402e+03,2.69999893,-5.35602705e-11,3.64960574,1.33292908,-1.84509853,7.15399997e-01,4.48623780e-05,5.99065296,-2.59146751,-1,-0.9980999134814286
9.75260424e+03,2.69999891,-5.13503181e-11,3.65039244,1.32578959,-1.84509853,7.15399997e-01,4.48623938e-05,5.99759511,-2.57061111,-1,-0.9979966661735931
1.02445528e+04,2.69999888,-4.92191474e-11,3.65121952,1.31858945,-1.84509853,7.15399997e-01,4.48624210e-05,6.00459908,-2.54957152,-1,-0.9978882282133942
1.07613051e+04,2.69999886,-4.71983785e-11,3.65208145,1.31134564,-1.84509852,7.15399996e-01,4.48624685e-05,6.01164819,-2.52840030,-1,-0.9977743228787793
1.13036645e+04,2.69999883,-4.52201034e-11,3.65288323,1.30406135,-1.84509852,7.15399996e-01,4.48625333e-05,6.01873973,-2.50710223,-1,-0.9976547730887958
1.18733569e+04,2.69999881,-4.33159208e-11,3.65372675,1.29672659,-1.84509852,7.15399995e-01,4.48626244e-05,6.02588282,-2.48565128,-1,-0.9975291984112384
1.24714985e+04,2.69999878,-4.14819949e-11,3.65454412,1.28936450,-1.84509851,7.15399995e-01,4.48627866e-05,6.03305539,-2.46411309,-1,-0.9973973528072709
1.30997678e+04,2.69999876,-3.97239014e-11,3.65538718,1.28197250,-1.84509851,7.15399995e-01,4.48630868e-05,6.04025960,-2.44247978,-1,-0.9972588662928525
1.37592047e+04,2.69999873,-3.80179981e-11,3.65620289,1.27452372,-1.84509850,7.15399994e-01,4.48635369e-05,6.04752234,-2.42067254,-1,-0.997113509647605
1.44520237e+04,2.69999871,-3.63873490e-11,3.65707822,1.26704347,-1.84509850,7.15399993e-01,4.48641942e-05,6.05481777,-2.39876934,-1,-0.9969607947394711
1.51793354e+04,2.69999868,-3.48240235e-11,3.65792288,1.25953427,-1.84509850,7.15399993e-01,4.48649851e-05,6.06214350,-2.37677704,-1,-0.9968004767639966
1.59427538e+04,2.69999865,-3.33064193e-11,3.65872541,1.25200256,-1.84509849,7.15399992e-01,4.48661181e-05,6.06949369,-2.35470873,-1,-0.9966321999545791
1.67448061e+04,2.69999863,-3.18535585e-11,3.65959676,1.24444187,-1.84509849,7.15399991e-01,4.48678755e-05,6.07687448,-2.33255025,-1,-0.9964554072521371
1.75868040e+04,2.69999860,-3.04711999e-11,3.66043430,1.23686176,-1.84509849,7.15399990e-01,4.48701682e-05,6.08427751,-2.31032480,-1,-0.9962698095246679
1.84712167e+04,2.69999858,-2.91279043e-11,3.66123862,1.22927180,-1.84509848,7.15399989e-01,4.48741321e-05,6.09169312,-2.28806469,-1,-0.9960748624977632
1.94004133e+04,2.69999855,-2.78619949e-11,3.66210161,1.22166755,-1.84509848,7.15399987e-01,4.48798178e-05,6.09912499,-2.26575438,-1,-0.9958700439615981
2.03758938e+04,2.69999852,-2.66300006e-11,3.66292279,1.21406621,-1.84509848,7.15399984e-01,4.48874204e-05,6.10655625,-2.24345029,-1,-0.995655023278066
2.14001817e+04,2.69999850,-2.54566713e-11,3.66372910,1.20646770,-1.84509848,7.15399980e-01,4.48999821e-05,6.11398603,-2.22114779,-1,-0.9954292442036595
2.24761495e+04,2.69999847,-2.43415785e-11,3.66454554,1.19889587,-1.84509848,7.15399973e-01,4.49192824e-05,6.12139178,-2.19891853,-1,-0.9951920735664048
2.36065652e+04,2.69999844,-2.32733674e-11,3.66537948,1.19135625,-1.84509848,7.15399965e-01,4.49440901e-05,6.12876830,-2.17678048,-1,-0.9949429012287831
2.47941688e+04,2.69999842,-2.22724267e-11,3.66618553,1.18384627,-1.84509848,7.15399954e-01,4.49764833e-05,6.13611833,-2.15472368,-1,-0.9946811232251869
2.60426093e+04,2.69999839,-2.13173855e-11,3.66698522,1.17642403,-1.84509848,7.15399940e-01,4.50197235e-05,6.14338517,-2.13291422,-1,-0.9944059352233159
2.73543695e+04,2.69999836,-2.04065719e-11,3.66774590,1.16910390,-1.84509848,7.15399921e-01,4.50750222e-05,6.15055462,-2.11139742,-1,-0.9941167899509766
2.87333774e+04,2.69999833,-1.95494679e-11,3.66849530,1.16191188,-1.84509847,7.15399890e-01,4.51688979e-05,6.15760067,-2.09025225,-1,-0.9938128215771812
3.01835545e+04,2.69999831,-1.87496063e-11,3.66923098,1.15488300,-1.84509847,7.15399854e-01,4.52770040e-05,6.16448851,-2.06958654,-1,-0.993493165703707
3.17088637e+04,2.69999828,-1.80021122e-11,3.66994525,1.14805925,-1.84509847,7.15399798e-01,4.54450845e-05,6.17117671,-2.04952060,-1,-0.9931569488067196
3.33136069e+04,2.69999825,-1.73118764e-11,3.67064417,1.14148091,-1.84509847,7.15399717e-01,4.56867768e-05,6.17762595,-2.03017409,-1,-0.9928032226381724
3.50029639e+04,2.69999822,-1.66711871e-11,3.67131204,1.13519220,-1.84509847,7.15399617e-01,4.59865575e-05,6.18379287,-2.01167264,-1,-0.9924308454385569
3.67818389e+04,2.69999819,-1.60884627e-11,3.67190948,1.12922080,-1.84509847,7.15399497e-01,4.63474786e-05,6.18964978,-1.99410028,-1,-0.9920387361976052
3.86526166e+04,2.69999816,-1.55543163e-11,3.67248285,1.12361459,-1.84509847,7.15399326e-01,4.68607284e-05,6.19514996,-1.97759910,-1,-0.9916263692668562
4.06255465e+04,2.69999813,-1.50725764e-11,3.67302925,1.11836223,-1.84509847,7.15399110e-01,4.75090599e-05,6.20030410,-1.96213638,-1,-0.991191485396129
4.27010922e+04,2.69999810,-1.46413873e-11,3.67356734,1.11346564,-1.84509847,7.15398852e-01,4.82818257e-05,6.20511008,-1.94771926,-1,-0.9907339823962065
4.48846549e+04,2.69999807,-1.42451479e-11,3.67402992,1.10887729,-1.84509847,7.15398564e-01,4.91470431e-05,6.20961445,-1.93421056,-1,-0.9902526697053949
4.71829187e+04,2.69999804,-1.38814957e-11,3.67446686,1.10454149,-1.84509847,7.15398239e-01,5.01226369e-05,6.21387175,-1.92144268,-1,-0.9897460739782502
4.96017305e+04,2.69999801,-1.35437724e-11,3.67487414,1.10038729,-1.84509847,7.15397823e-01,5.13690542e-05,6.21795123,-1.90920942,-1,-0.9892129064094762
5.21459559e+04,2.69999797,-1.32233550e-11,3.67530474,1.09633038,-1.84509847,7.15397383e-01,5.26882734e-05,6.22193571,-1.89726029,-1,-0.9886520944972262
5.48179957e+04,2.69999794,-1.29101546e-11,3.67571745,1.09222704,-1.84509847,7.15396932e-01,5.40432306e-05,6.22596623,-1.88517348,-1,-0.9880631090441896
5.76230195e+04,2.69999790,-1.25917217e-11,3.67612976,1.08799337,-1.84509847,7.15396415e-01,5.55928036e-05,6.23012561,-1.87269977,-1,-0.9874448105391967
6.05707891e+04,2.69999787,-1.22677588e-11,3.67660947,1.08349965,-1.84509847,7.15395883e-01,5.71885385e-05,6.23454118,-1.85945774,-1,-0.9867950472335366
6.36654493e+04,2.69999783,-1.19171612e-11,3.67707744,1.07862082,-1.84509847,7.15395379e-01,5.87002343e-05,6.23933616,-1.84507797,-1,-0.9861129055079937
6.69077688e+04,2.69999779,-1.15429607e-11,3.67761248,1.07323384,-1.84509847,7.15394852e-01,6.02832217e-05,6.24463144,-1.82920090,-1,-0.9853982159215597
7.03055750e+04,2.69999775,-1.11334480e-11,3.67819515,1.06720577,-1.84509847,7.15394356e-01,6.17697304e-05,6.25055788,-1.81143212,-1,-0.9846492531164258
7.38580059e+04,2.69999772,-1.06913877e-11,3.67891285,1.06038370,-1.84509847,7.15393883e-01,6.31899329e-05,6.25726565,-1.79132170,-1,-0.9838662070992903
7.75651411e+04,2.69999768,-1.02088549e-11,3.67967220,1.05267475,-1.84509847,7.15393417e-01,6.45884430e-05,6.26484678,-1.76858968,-1,-0.9830490603242908
8.14267291e+04,2.69999764,-9.68782516e-12,3.68050292,1.04405898,-1.84509847,7.15393211e-01,6.52063457e-05,6.27332178,-1.74317855,-1,-0.9821978682284169
8.54514485e+04,2.69999760,-9.14891988e-12,3.68140947,1.03457659,-1.84509847,7.15393025e-01,6.57621705e-05,6.28265232,-1.71520067,-1,-0.9813107178277551
8.96492982e+04,2.69999756,-8.60669853e-12,3.68237931,1.02451801,-1.84509847,7.15392895e-01,6.61533286e-05,6.29255250,-1.68551828,-1,-0.9803854051107312
9.40412623e+04,2.69999753,-8.08579701e-12,3.68341495,1.01416370,-1.84509847,7.15392850e-01,6.62877504e-05,6.30274596,-1.65495702,-1,-0.9794173046486202
9.86450960e+04,2.69999749,-7.59561031e-12,3.68438894,1.00378594,-1.84509847,7.15392841e-01,6.63159644e-05,6.31296512,-1.62431850,-1,-0.978402502744285
1.03476477e+05,2.69999746,-7.13617078e-12,3.68533297,9.93506561e-01,-1.84509847,7.15392838e-01,6.63233216e-05,6.32309095,-1.59396057,-1,-0.9773375436343654
1.08554939e+05,2.69999742,-6.71394781e-12,3.68633682,9.83355106e-01,-1.84509847,7.15392838e-01,6.63242816e-05,6.33316980,-1.56383250,-1,-0.9762181215951431
1.13885251e+05,2.69999739,-6.31565038e-12,3.68731474,9.73244682e-01,-1.84509847,7.15392838e-01,6.63243504e-05,6.34325564,-1.53374323,-1,-0.9750431854178653
1.19479601e+05,2.69999735,-5.94579551e-12,3.68823781,9.63223988e-01,-1.84509847,7.15392838e-01,6.63243525e-05,6.35313370,-1.50412754,-1,-0.9738100485577049
1.25353226e+05,2.69999732,-5.59901777e-12,3.68912744,9.53319138e-01,-1.84509847,7.15392838e-01,6.63243526e-05,6.36290080,-1.47484857,-1,-0.972515352392778
1.31524294e+05,2.69999729,-5.27611503e-12,3.69004092,9.43514241e-01,-1.84602068,7.15427826e-01,6.63214605e-05,6.37250398,-1.44578788,-1,-0.9711550922343404
1.38004995e+05,2.69999725,-4.97512692e-12,3.69094624,9.33807751e-01,-1.84596299,7.15426556e-01,6.63215580e-05,6.38189001,-1.41686184,-1,-0.9697265810967145
1.44804116e+05,2.69999722,-4.69120128e-12,3.69176090,9.24208442e-01,-1.84558937,7.15408769e-01,6.63230278e-05,6.39105810,-1.38808430,-1,-0.9682278821018733
1.51951054e+05,2.69999719,-4.42810245e-12,3.69263864,9.14691766e-01,-1.84609840,7.15423533e-01,6.63217894e-05,6.40004430,-1.35938800,-1,-0.9666525154042086
1.59450814e+05,2.69999716,-4.18061854e-12,3.69344516,9.05270603e-01,-1.84605652,7.15422377e-01,6.63218724e-05,6.40884750,-1.33079019,-1,-0.9649993777745723
1.67326721e+05,2.69999712,-3.94865946e-12,3.69424404,8.95936238e-01,-1.84585533,7.15415046e-01,6.63224751e-05,6.41747854,-1.30225269,-1,-0.9632633277904108
1.75607383e+05,2.69999709,-3.73276934e-12,3.69513374,8.86670069e-01,-1.84657132,7.15431720e-01,6.63211229e-05,6.42596238,-1.27371257,-1,-0.9614380595217596
1.84290747e+05,2.69999706,-3.52949796e-12,3.69589612,8.77495992e-01,-1.84638197,7.15425111e-01,6.63216604e-05,6.43428373,-1.24523180,-1,-0.9595240255019738
1.93412732e+05,2.69999703,-3.33840895e-12,3.69668393,8.68396969e-01,-1.84588473,7.15410925e-01,6.63228365e-05,6.44246725,-1.21674315,-1,-0.9575133082709587
2.02990524e+05,2.69999700,-3.15917073e-12,3.69746006,8.59374073e-01,-1.84674949,7.15426597e-01,6.63215048e-05,6.45052070,-1.18824373,-1,-0.9554021195977173
2.13046868e+05,2.69999697,-2.99051186e-12,3.69822389,8.50428569e-01,-1.84653389,7.15421851e-01,6.63218858e-05,6.45845064,-1.15972484,-1,-0.9531854459064302
2.23611596e+05,2.69999694,-2.83383048e-12,3.69903721,8.41547291e-01,-1.84757457,7.15436862e-01,6.63207058e-05,6.46627810,-1.13114391,-1,-0.9508567114664386
2.34703091e+05,2.69999691,-2.68479414e-12,3.69978865,8.32745251e-01,-1.84714097,7.15428282e-01,6.63214078e-05,6.47399569,-1.10252543,-1,-0.9484118641975363
2.46350901e+05,2.69999688,-2.54509965e-12,3.70053020,8.24015882e-01,-1.84782313,7.15433729e-01,6.63209424e-05,6.48161522,-1.07384019,-1,-0.9458443909698792
2.58574029e+05,2.69999685,-2.41307722e-12,3.70122053,8.15366161e-01,-1.84742425,7.15427281e-01,6.63214671e-05,6.48913498,-1.04509420,-1,-0.9431501030395106
2.71415237e+05,2.69999682,-2.29054110e-12,3.70198379,8.06781741e-01,-1.84669347,7.15415607e-01,6.63224469e-05,6.49657485,-1.01623278,-1,-0.9403195745752949
2.84909944e+05,2.69999679,-2.17386117e-12,3.70274877,7.98267272e-01,-1.84835105,7.15432937e-01,6.63209791e-05,6.50393928,-9.87250102e-01,-1,-0.9373449983298396
2.99073389e+05,2.69999676,-2.06437272e-12,3.70345811,7.89828800e-01,-1.84773642,7.15425080e-01,6.63216231e-05,6.51123121,-9.58150323e-01,-1,-0.9342230152404095
3.13932766e+05,2.69999673,-1.96039634e-12,3.70410794,7.81474347e-01,-1.84649187,7.15409213e-01,6.63229556e-05,6.51844553,-9.28933339e-01,-1,-0.9309476310585622
3.29550928e+05,2.69999670,-1.86237356e-12,3.70478423,7.73199253e-01,-1.84581668,7.15400155e-01,6.63237357e-05,6.52559517,-8.99554258e-01,-1,-0.9275049913863653
3.45976489e+05,2.69999667,-1.77326840e-12,3.70561924,7.64977205e-01,-1.84897444,7.15429911e-01,6.63212202e-05,6.53271348,-8.69942511e-01,-1,-0.9238843804632176
3.63189247e+05,2.69999664,-1.68671487e-12,3.70626919,7.56852381e-01,-1.84771013,7.15417562e-01,6.63222491e-05,6.53976961,-8.40198850e-01,-1,-0.9200902513231355
3.81280283e+05,2.69999661,-1.60445210e-12,3.70690609,7.48823755e-01,-1.84509866,7.15392849e-01,6.63243512e-05,6.54677223,-8.10272753e-01,-1,-0.916102527399876
