star_age,star_mass,star_mdot,log_Teff,log_R,log_surf_z,surface_h1,surface_he3,log_center_T,log_center_Rho,phase,x
5.00341431e+02,2.19999985,-2.64639221e-10,3.66305640,1.51695006,-2.84509879,7.47426501e-01,4.16806592e-05,5.71647423,-3.20980704,-1,-1.0
5.24783741e+02,2.19999985,-2.61417446e-10,3.66329293,1.51466259,-2.84509879,7.47426501e-01,4.16806592e-05,5.71867535,-3.20322042,-1,-0.999992071970695
5.50410335e+02,2.19999984,-2.57908320e-10,3.66353725,1.51229778,-2.84509879,7.47426501e-01,4.16806592e-05,5.72095089,-3.19640827,-1,-0.9999837598108287
5.77286975e+02,2.19999983,-2.54298775e-10,3.66378956,1.50985353,-2.84509879,7.47426501e-01,4.16806592e-05,5.72330352,-3.18936768,-1,-0.9999750421900496
6.05474340e+02,2.19999983,-2.50554996e-10,3.66404467,1.50732818,-2.84509879,7.47426501e-01,4.16806592e-05,5.72573437,-3.18209110,-1,-0.9999658994267121
6.35055107e+02,2.19999982,-2.46664635e-10,3.66431010,1.50471867,-2.84509879,7.47426501e-01,4.16806592e-05,5.72824624,-3.17457386,-1,-0.9999563047039693
6.66083710e+02,2.19999981,-2.42733015e-10,3.66458777,1.50202465,-2.84509879,7.47426501e-01,4.16806592e-05,5.73083994,-3.16681103,-1,-0.9999462403657836
6.98614318e+02,2.19999980,-2.38779693e-10,3.66489220,1.49924512,-2.84509879,7.47426501e-01,4.16806592e-05,5.73351565,-3.15880182,-1,-0.9999356888420718
7.32707748e+02,2.19999980,-2.34752852e-10,3.66518214,1.49638048,-2.84509879,7.47426501e-01,4.16806592e-05,5.73627399,-3.15054534,-1,-0.9999246304064268
7.68424957e+02,2.19999979,-2.30663532e-10,3.66548014,1.49343025,-2.84509879,7.47426501e-01,4.16806592e-05,5.73911514,-3.14204140,-1,-0.9999130452870314
8.05821428e+02,2.19999978,-2.26535772e-10,3.66578557,1.49039465,-2.84509879,7.47426501e-01,4.16806592e-05,5.74203859,-3.13328939,-1,-0.9999009154875977
8.45032840e+02,2.19999977,-2.22347954e-10,3.66616404,1.48726706,-2.84509879,7.47426501e-01,4.16806592e-05,5.74505052,-3.12427123,-1,-0.9998881969997204
8.86296139e+02,2.19999976,-2.18124598e-10,3.66649164,1.48404275,-2.84509879,7.47426501e-01,4.16806592e-05,5.74815700,-3.11496857,-1,-0.9998748129683545
9.29436269e+02,2.19999975,-2.13877915e-10,3.66682561,1.48073330,-2.84509879,7.47426501e-01,4.16806592e-05,5.75134609,-3.10541933,-1,-0.9998608201741028
9.74620172e+02,2.19999974,-2.09627204e-10,3.66716464,1.47733508,-2.84509879,7.47426501e-01,4.16806592e-05,5.75462168,-3.09560974,-1,-0.9998461644681935
1.02214493e+03,2.19999973,-2.05303163e-10,3.66751416,1.47383903,-2.84509879,7.47426501e-01,4.16806592e-05,5.75799238,-3.08551699,-1,-0.9998307494900618
1.07176771e+03,2.19999972,-2.00950032e-10,3.66787059,1.47025875,-2.84509879,7.47426500e-01,4.16806592e-05,5.76144477,-3.07517657,-1,-0.9998146540042406
1.12398636e+03,2.19999971,-1.96569999e-10,3.66825923,1.46657768,-2.84509879,7.47426500e-01,4.16806592e-05,5.76499470,-3.06454484,-1,-0.9997977165303492
1.17855424e+03,2.19999970,-1.92231918e-10,3.66867852,1.46280739,-2.84509878,7.47426500e-01,4.16806592e-05,5.76863082,-3.05365665,-1,-0.999780017067747
1.23591322e+03,2.19999969,-1.87833551e-10,3.66906332,1.45893977,-2.84509878,7.47426500e-01,4.16806592e-05,5.77236172,-3.04248201,-1,-0.9997614122928976
1.29584559e+03,2.19999968,-1.83473016e-10,3.66948091,1.45498474,-2.84509878,7.47426500e-01,4.16806593e-05,5.77617725,-3.03105532,-1,-0.9997419728215184
1.35886231e+03,2.19999967,-1.79086683e-10,3.66988565,1.45093097,-2.84509878,7.47426500e-01,4.16806593e-05,5.78008885,-3.01934041,-1,-0.9997215329202624
1.42482764e+03,2.19999966,-1.74697371e-10,3.67029449,1.44678781,-2.84509878,7.47426500e-01,4.16806593e-05,5.78408703,-3.00736593,-1,-0.9997001366173205
1.49388175e+03,2.19999965,-1.70309605e-10,3.67074938,1.44255344,-2.84509875,7.47426498e-01,4.16806594e-05,5.78817353,-2.99512547,-1,-0.999677738447601
1.56635092e+03,2.19999963,-1.65920110e-10,3.67117275,1.43822504,-2.84509875,7.47426498e-01,4.16806595e-05,5.79235219,-2.98260842,-1,-0.9996542325799692
1.64235726e+03,2.19999962,-1.61637695e-10,3.67164914,1.43380197,-2.84509872,7.47426496e-01,4.16806596e-05,5.79662273,-2.96981417,-1,-0.9996295794072171
1.72196458e+03,2.19999961,-1.57362896e-10,3.67209242,1.42929157,-2.84509872,7.47426496e-01,4.16806597e-05,5.80097912,-2.95676334,-1,-0.9996037582321374
1.80538239e+03,2.19999960,-1.53089688e-10,3.67257418,1.42469058,-2.84509871,7.47426495e-01,4.16806597e-05,5.80542364,-2.94344605,-1,-0.9995767010987386
1.89279451e+03,2.19999958,-1.48864213e-10,3.67306111,1.42000008,-2.84509871,7.47426495e-01,4.16806598e-05,5.80995619,-2.92986722,-1,-0.9995483483837546
1.98439029e+03,2.19999957,-1.44663001e-10,3.67352719,1.41522265,-2.84509870,7.47426494e-01,4.16806598e-05,5.81457384,-2.91603073,-1,-0.9995186386702266
2.08041330e+03,2.19999956,-1.40543772e-10,3.67406331,1.41035484,-2.84509864,7.47426491e-01,4.16806602e-05,5.81927947,-2.90193179,-1,-0.9994874929545704
2.18101535e+03,2.19999954,-1.36471502e-10,3.67456360,1.40540195,-2.84509863,7.47426491e-01,4.16806603e-05,5.82406882,-2.88758170,-1,-0.9994548619961809
2.28642325e+03,2.19999953,-1.32421980e-10,3.67505520,1.40036556,-2.84509863,7.47426490e-01,4.16806603e-05,5.82894004,-2.87298413,-1,-0.9994206722276939
2.39688533e+03,2.19999951,-1.28421486e-10,3.67558906,1.39524412,-2.84509861,7.47426489e-01,4.16806605e-05,5.83389367,-2.85813902,-1,-0.9993848431015867
2.51256927e+03,2.19999950,-1.24458181e-10,3.67608830,1.39004275,-2.84509860,7.47426488e-01,4.16806606e-05,5.83892556,-2.84306002,-1,-0.9993473202297122
2.63380631e+03,2.19999948,-1.20652209e-10,3.67667040,1.38475654,-2.84509854,7.47426485e-01,4.16806613e-05,5.84403948,-2.82773207,-1,-0.999307996172126
2.76094271e+03,2.19999947,-1.16839773e-10,3.67720989,1.37939156,-2.84509854,7.47426485e-01,4.16806614e-05,5.84923174,-2.81217072,-1,-0.9992667586170445
2.89412717e+03,2.19999945,-1.13072968e-10,3.67773174,1.37395061,-2.84509853,7.47426484e-01,4.16806616e-05,5.85449933,-2.79638271,-1,-0.9992235593326125
3.03361089e+03,2.19999944,-1.09399188e-10,3.67828795,1.36843422,-2.84509852,7.47426483e-01,4.16806620e-05,5.85984160,-2.78037117,-1,-0.9991783168404037
3.17963040e+03,2.19999942,-1.05793553e-10,3.67883251,1.36284480,-2.84509851,7.47426483e-01,4.16806626e-05,5.86525630,-2.76414231,-1,-0.9991309544203053
3.33291314e+03,2.19999941,-1.02231891e-10,3.67940435,1.35718037,-2.84509849,7.47426482e-01,4.16806640e-05,5.87071148,-2.74774812,-1,-0.9990812361222114
3.49331462e+03,2.19999939,-9.88014566e-11,3.67998976,1.35144653,-2.84509848,7.47426482e-01,4.16806653e-05,5.87624550,-2.73112625,-1,-0.9990292088124351
3.66144111e+03,2.19999938,-9.54247833e-11,3.68056330,1.34564505,-2.84509848,7.47426482e-01,4.16806663e-05,5.88182212,-2.71435126,-1,-0.9989746758431829
3.83755827e+03,2.19999936,-9.21357623e-11,3.68115519,1.33977264,-2.84509848,7.47426482e-01,4.16806684e-05,5.88750059,-2.69731231,-1,-0.9989175510458291
4.02203916e+03,2.19999934,-8.89017759e-11,3.68174464,1.33383197,-2.84509848,7.47426482e-01,4.16806721e-05,5.89326236,-2.68003903,-1,-0.9988577134158282
4.21526969e+03,2.19999933,-8.57501831e-11,3.68231161,1.32783043,-2.84509847,7.47426481e-01,4.16806775e-05,5.89908373,-2.66258501,-1,-0.9987950377806498
4.41779930e+03,2.19999931,-8.26735725e-11,3.68291902,1.32176530,-2.84509847,7.47426481e-01,4.16806854e-05,5.90496832,-2.64494326,-1,-0.9987293459256972
4.62983743e+03,2.19999929,-7.96962497e-11,3.68357169,1.31563101,-2.84509847,7.47426481e-01,4.16806919e-05,5.91092334,-2.62708716,-1,-0.9986605699176834
4.85217467e+03,2.19999927,-7.68163150e-11,3.68416209,1.30944262,-2.84509847,7.47426481e-01,4.16807035e-05,5.91693142,-2.60907142,-1,-0.9985884533233708
5.08487392e+03,2.19999926,-7.39817048e-11,3.68475122,1.30320016,-2.84509847,7.47426481e-01,4.16807198e-05,5.92299417,-2.59089121,-1,-0.9985129757407171
5.32859289e+03,2.19999924,-7.12135947e-11,3.68534290,1.29690347,-2.84509847,7.47426481e-01,4.16807404e-05,5.92911061,-2.57255046,-1,-0.9984339238370155
5.58428324e+03,2.19999922,-6.85739092e-11,3.68600873,1.29054687,-2.84509847,7.47426481e-01,4.16807672e-05,5.93528652,-2.55403357,-1,-0.9983509889348795
5.85179787e+03,2.19999920,-6.59906466e-11,3.68661180,1.28414239,-2.84509847,7.47426481e-01,4.16808102e-05,5.94151151,-2.53536671,-1,-0.9982642187471934
6.13200792e+03,2.19999919,-6.34891877e-11,3.68722472,1.27769151,-2.84509847,7.47426481e-01,4.16808625e-05,5.94778368,-2.51655735,-1,-0.9981733307137801
6.42573288e+03,2.19999917,-6.10377756e-11,3.68783243,1.27118987,-2.84509847,7.47426481e-01,4.16809300e-05,5.95410729,-2.49759090,-1,-0.9980780590274904
6.73344224e+03,2.19999915,-5.86602979e-11,3.68853658,1.26463719,-2.84509847,7.47426481e-01,4.16809906e-05,5.96048150,-2.47847497,-1,-0.9979782514060532
7.05545102e+03,2.19999913,-5.64052882e-11,3.68916067,1.25804087,-2.84509847,7.47426481e-01,4.16811244e-05,5.96689984,-2.45922576,-1,-0.9978738056705915
7.39307825e+03,2.19999911,-5.41938466e-11,3.68978759,1.25139967,-2.84509847,7.47426481e-01,4.16812762e-05,5.97336339,-2.43984084,-1,-0.9977642939847633
7.74675787e+03,2.19999909,-5.20646726e-11,3.69043974,1.24471519,-2.84509847,7.47426481e-01,4.16814447e-05,5.97987050,-2.42032480,-1,-0.9976495755971816
8.11701408e+03,2.19999907,-4.99975507e-11,3.69106952,1.23799247,-2.84509847,7.47426481e-01,4.16817337e-05,5.98641732,-2.40068858,-1,-0.9975294804800151
8.50472069e+03,2.19999906,-4.79927577e-11,3.69170221,1.23123121,-2.84509847,7.47426481e-01,4.16820677e-05,5.99300388,-2.38092967,-1,-0.9974037252070537
8.91124847e+03,2.19999904,-4.60777967e-11,3.69239446,1.22442704,-2.84509847,7.47426481e-01,4.16825334e-05,5.99963363,-2.36104044,-1,-0.9972718651597353
9.33702872e+03,2.19999902,-4.42168983e-11,3.69304486,1.21759103,-2.84509847,7.47426481e-01,4.16831364e-05,6.00629657,-2.34105430,-1,-0.9971337604429746
9.78287607e+03,2.19999900,-4.24184595e-11,3.69368634,1.21072177,-2.84509847,7.47426480e-01,4.16839297e-05,6.01299366,-2.32096919,-1,-0.9969891468259967
1.02497674e+04,2.19999898,-4.06865229e-11,3.69431408,1.20382324,-2.84509847,7.47426480e-01,4.16849765e-05,6.01972121,-2.30079336,-1,-0.9968377074511369
1.07388797e+04,2.19999896,-3.90134370e-11,3.69497113,1.19689223,-2.84509847,7.47426480e-01,4.16863579e-05,6.02648217,-2.28051478,-1,-0.9966790605536923
1.12510495e+04,2.19999894,-3.74028674e-11,3.69560239,1.18993541,-2.84509847,7.47426479e-01,4.16881800e-05,6.03327079,-2.26015248,-1,-0.9965129347994742
1.17878560e+04,2.19999892,-3.58459058e-11,3.69630429,1.18294536,-2.84509847,7.47426478e-01,4.16896998e-05,6.04009374,-2.23968348,-1,-0.9963388179642341
1.23500806e+04,2.19999890,-3.43737788e-11,3.69694039,1.17593685,-2.84509847,7.47426477e-01,4.16937821e-05,6.04693664,-2.21915675,-1,-0.9961564565955728
1.29389971e+04,2.19999888,-3.29253256e-11,3.69758647,1.16890495,-2.84509847,7.47426476e-01,4.16979955e-05,6.05380389,-2.19855983,-1,-0.9959654375278068
1.35558412e+04,2.19999886,-3.15568997e-11,3.69822884,1.16185363,-2.84509847,7.47426474e-01,4.17035580e-05,6.06069144,-2.17789951,-1,-0.9957653599532458
1.42019456e+04,2.19999884,-3.02333000e-11,3.69885879,1.15478860,-2.84509847,7.47426471e-01,4.17109057e-05,6.06759427,-2.15719333,-1,-0.9955557916015906
1.48790885e+04,2.19999882,-2.89625716e-11,3.69954468,1.14770549,-2.84509847,7.47426469e-01,4.17194775e-05,6.07451669,-2.13642726,-1,-0.9953361557015904
1.55881524e+04,2.19999880,-2.77464099e-11,3.70018831,1.14061711,-2.84509847,7.47426464e-01,4.17333762e-05,6.08144648,-2.11563571,-1,-0.9951061660083749
1.63308911e+04,2.19999878,-2.65778103e-11,3.70081845,1.13352708,-2.84509847,7.47426458e-01,4.17502077e-05,6.08837998,-2.09483565,-1,-0.9948652536649989
1.71089296e+04,2.19999876,-2.54502540e-11,3.70143861,1.12644165,-2.84509847,7.47426451e-01,4.17723476e-05,6.09531076,-2.07404450,-1,-0.9946128915916725
1.79243927e+04,2.19999874,-2.43731639e-11,3.70209341,1.11936287,-2.84509847,7.47426443e-01,4.17954473e-05,6.10223654,-2.05327069,-1,-0.9943483905950803
1.87787786e+04,2.19999872,-2.33546028e-11,3.70274079,1.11230312,-2.84509847,7.47426428e-01,4.18395850e-05,6.10914513,-2.03254661,-1,-0.9940712647238736
1.96739296e+04,2.19999870,-2.23801649e-11,3.70336184,1.10527641,-2.84509847,7.47426412e-01,4.18895371e-05,6.11602317,-2.01191153,-1,-0.9937809164155315
2.06119957e+04,2.19999868,-2.14466130e-11,3.70396902,1.09829768,-2.84509847,7.47426390e-01,4.19547338e-05,6.12285609,-1.99141209,-1,-0.9934766483029468
2.15953295e+04,2.19999866,-2.05597994e-11,3.70458034,1.09138140,-2.84509847,7.47426362e-01,4.20395631e-05,6.12962964,-1.97109156,-1,-0.9931576973043267
2.26260412e+04,2.19999864,-1.97185513e-11,3.70517167,1.08454925,-2.84509847,7.47426325e-01,4.21494143e-05,6.13632247,-1.95101240,-1,-0.9928233789619648
2.37067864e+04,2.19999862,-1.89194473e-11,3.70575717,1.07782365,-2.84509847,7.47426278e-01,4.22909010e-05,6.14291242,-1.93124437,-1,-0.9924728319139594
2.48404308e+04,2.19999860,-1.81735104e-11,3.70637201,1.07122948,-2.84509847,7.47426225e-01,4.24498971e-05,6.14937515,-1.91185626,-1,-0.9921051266510466
2.60302936e+04,2.19999858,-1.74796007e-11,3.70691922,1.06480857,-2.84509847,7.47426141e-01,4.27033200e-05,6.15566922,-1.89297255,-1,-0.9917191865681563
2.72787063e+04,2.19999856,-1.68258129e-11,3.70745073,1.05859103,-2.84509847,7.47426043e-01,4.29946597e-05,6.16176482,-1.87468376,-1,-0.9913142554274236
2.85880272e+04,2.19999853,-1.62160440e-11,3.70795942,1.05260597,-2.84509847,7.47425923e-01,4.33564270e-05,6.16763308,-1.85707667,-1,-0.9908895682982216
2.99639181e+04,2.19999851,-1.56581878e-11,3.70843601,1.04690212,-2.84509847,7.47425774e-01,4.38035636e-05,6.17322679,-1.84029378,-1,-0.9904432887372554
3.14074328e+04,2.19999849,-1.51440721e-11,3.70890849,1.04149232,-2.84509847,7.47425594e-01,4.43438973e-05,6.17853319,-1.82437530,-1,-0.9899750749373354
3.29252073e+04,2.19999847,-1.46791061e-11,3.70933281,1.03641193,-2.84509847,7.47425378e-01,4.49920427e-05,6.18351795,-1.80942118,-1,-0.9894827744667778
3.45179595e+04,2.19999845,-1.42538048e-11,3.70972960,1.03164967,-2.84509847,7.47425125e-01,4.57506337e-05,6.18819183,-1.79540198,-1,-0.9889661544698405
3.61902182e+04,2.19999842,-1.38668768e-11,3.71009372,1.02719954,-2.84509847,7.47424834e-01,4.66239984e-05,6.19256034,-1.78229705,-1,-0.9884237459994756
3.79469136e+04,2.19999840,-1.35194623e-11,3.71049086,1.02303131,-2.84509847,7.47424506e-01,4.76074617e-05,6.19665240,-1.77002156,-1,-0.9878539499118181
3.97903014e+04,2.19999837,-1.31995594e-11,3.71081848,1.01909382,-2.84509847,7.47424139e-01,4.87078463e-05,6.20051867,-1.75842423,-1,-0.9872560345552484
4.17231589e+04,2.19999835,-1.28989585e-11,3.71113662,1.01532321,-2.84509847,7.47423749e-01,4.98776226e-05,6.20422122,-1.74731674,-1,-0.9866290990936427
4.37505409e+04,2.19999832,-1.26162341e-11,3.71146894,1.01164576,-2.84509847,7.47423320e-01,5.11655855e-05,6.20783270,-1.73648436,-1,-0.98597150396828
4.58807337e+04,2.19999830,-1.23399425e-11,3.71177308,1.00797727,-2.84509847,7.47422868e-01,5.25217101e-05,6.21143584,-1.72567563,-1,-0.9852805614614595
4.81082671e+04,2.19999827,-1.20655250e-11,3.71208230,1.00423454,-2.84509847,7.47422404e-01,5.39117686e-05,6.21511211,-1.71464717,-1,-0.9845580458697147
5.04452792e+04,2.19999824,-1.17848676e-11,3.71240652,1.00031518,-2.84509847,7.47421932e-01,5.53279773e-05,6.21896256,-1.70309573,-1,-0.9838000201178467
5.28933428e+04,2.19999821,-1.14902324e-11,3.71275103,9.96121283e-01,-2.84509847,7.47421461e-01,5.67428580e-05,6.22308349,-1.69073267,-1,-0.98300597405749
5.54525963e+04,2.19999819,-1.11778532e-11,3.71312349,9.91563256e-01,-2.84509847,7.47420999e-01,5.81286885e-05,6.22756317,-1.67729460,-1,-0.9821758627976646
5.81293603e+04,2.19999816,-1.08401639e-11,3.71354203,9.86523471e-01,-2.84509847,7.47420558e-01,5.94515992e-05,6.23251708,-1.66243497,-1,-0.9813076362088192
6.09271350e+04,2.19999813,-1.04714415e-11,3.71401603,9.80880592e-01,-2.84509847,7.47420153e-01,6.06653887e-05,6.23806435,-1.64579486,-1,-0.9804001589773043
6.38446463e+04,2.19999810,-1.00741593e-11,3.71456355,9.74533615e-01,-2.84509847,7.47419792e-01,6.17478706e-05,6.24430423,-1.62707731,-1,-0.9794538443661107
6.68822796e+04,2.19999807,-9.63911911e-12,3.71512985,9.67387952e-01,-2.84509847,7.47419497e-01,6.26355082e-05,6.25132995,-1.60599863,-1,-0.9784685673681304
7.00415469e+04,2.19999804,-9.17381514e-12,3.71578668,9.59403771e-01,-2.84509847,7.47419274e-01,6.33033686e-05,6.25918091,-1.58244146,-1,-0.9774438375558908
7.33226678e+04,2.19999801,-8.68835669e-12,3.71648991,9.50635848e-01,-2.84509847,7.47419128e-01,6.37424683e-05,6.26780435,-1.55656892,-1,-0.9763795837006402
7.67353596e+04,2.19999798,-8.19501438e-12,3.71722082,9.41247030e-01,-2.84509847,7.47419050e-01,6.39760027e-05,6.27704142,-1.52885099,-1,-0.9752726539301058
8.02941757e+04,2.19999795,-7.71561731e-12,3.71803020,9.31503391e-01,-2.84509847,7.47419018e-01,6.40715624e-05,6.28663146,-1.50007764,-1,-0.9741183277501247
8.40113227e+04,2.19999792,-7.25946178e-12,3.71880543,9.21674636e-01,-2.84509847,7.47419009e-01,6.40983076e-05,6.29623554,-1.47096712,-1,-0.9729126458670574
8.79021577e+04,2.19999790,-6.83322230e-12,3.71956851,9.11913621e-01,-2.84509847,7.47419007e-01,6.41029294e-05,6.30543192,-1.44162540,-1,-0.9716506271011855
9.19781896e+04,2.19999787,-6.43689537e-12,3.72030310,9.02275528e-01,-2.84509847,7.47419007e-01,6.41034187e-05,6.31444853,-1.41237457,-1,-0.9703285384626049
9.62510641e+04,2.19999784,-6.06965989e-12,3.72107294,8.92756385e-01,-2.84509847,7.47419007e-01,6.41034538e-05,6.32329371,-1.38317701,-1,-0.9689426025894016
1.00726351e+05,2.19999782,-5.72653029e-12,3.72180702,8.83355472e-01,-2.84509847,7.47419007e-01,6.41034554e-05,6.33184588,-1.35425686,-1,-0.9674910128791053
1.05413161e+05,2.19999779,-5.40632856e-12,3.72250451,8.74075399e-01,-2.84509847,7.47419007e-01,6.41034554e-05,6.34020896,-1.32546531,-1,-0.9659708142142749
1.10322297e+05,2.19999777,-5.10647735e-12,3.72317968,8.64911594e-01,-2.84509847,7.47419007e-01,6.41034554e-05,6.34839339,-1.29677989,-1,-0.9643785026009022
1.15468282e+05,2.19999774,-4.82641199e-12,3.72386276,8.55856079e-01,-2.84509847,7.47419007e-01,6.41034554e-05,6.35641423,-1.26816369,-1,-0.9627093674052707
1.20858796e+05,2.19999772,-4.56520466e-12,3.72452649,8.46908823e-01,-2.84509847,7.47419007e-01,6.41034554e-05,6.36428253,-1.23960768,-1,-0.9609609175672038
1.26506882e+05,2.19999769,-4.32023295e-12,3.72519679,8.38062999e-01,-2.84509847,7.47419007e-01,6.41034554e-05,6.37201435,-1.21107920,-1,-0.95912892250104
1.32421331e+05,2.19999767,-4.09177352e-12,3.72583662,8.29320276e-01,-2.84509847,7.47419007e-01,6.41034554e-05,6.37961747,-1.18257315,-1,-0.9572105307862045
1.38619212e+05,2.19999764,-3.87707713e-12,3.72649891,8.20672900e-01,-2.84509855,7.47419008e-01,6.41034554e-05,6.38710605,-1.15405999,-1,-0.9552002059765838
1.45113708e+05,2.19999762,-3.67585955e-12,3.72712710,8.12125971e-01,-2.84509847,7.47419008e-01,6.41034554e-05,6.39448355,-1.12554313,-1,-0.9530936720765651
1.51915738e+05,2.19999759,-3.48778379e-12,3.72774472,8.03675725e-01,-2.84509848,7.47419008e-01,6.41034554e-05,6.40176341,-1.09699564,-1,-0.9508873874343166
1.59038672e+05,2.19999757,-3.31060270e-12,3.72835187,7.95321164e-01,-2.84509848,7.47419008e-01,6.41034553e-05,6.40895395,-1.06840960,-1,-0.9485770153995049
1.66507132e+05,2.19999754,-3.14382642e-12,3.72895323,7.87063283e-01,-2.84509848,7.47419008e-01,6.41034553e-05,6.41606344,-1.03976189,-1,-0.9461545696591528
1.74333017e+05,2.19999752,-2.98864320e-12,3.72960381,7.78891394e-01,-2.84509848,7.47419008e-01,6.41034553e-05,6.42310956,-1.01101916,-1,-0.9436161906917705
1.82529683e+05,2.19999750,-2.84251015e-12,3.73020534,7.70817350e-01,-2.84509848,7.47419009e-01,6.41034552e-05,6.43008918,-9.82199151e-01,-1,-0.9409575463880199
1.91117914e+05,2.19999747,-2.70482613e-12,3.73080794,7.62837546e-01,-2.84509848,7.47419009e-01,6.41034552e-05,6.43701507,-9.53275568e-01,-1,-0.9381718953162983
2.00116398e+05,2.19999745,-2.57538416e-12,3.73141060,7.54953380e-01,-2.84509848,7.47419009e-01,6.41034551e-05,6.44389987,-9.24236306e-01,-1,-0.9352531758968428
2.09545333e+05,2.19999743,-2.45382768e-12,3.73200865,7.47164336e-01,-2.84509848,7.47419010e-01,6.41034550e-05,6.45074572,-8.95054620e-01,-1,-0.9321948367711318
