star_age,star_mass,star_mdot,log_Teff,log_R,log_surf_z,surface_h1,surface_he3,log_center_T,log_center_Rho,phase,x
3.87024407e+02,1.99996907e+02,-7.68928778e-06,4.63686009,1.53735021,-2.84509851,7.47426510e-01,4.16840840e-05,7.43360516,-5.90899008e-01,-1,-1.0
3.92809402e+02,1.99996862e+02,-7.68739681e-06,4.63731538,1.53639875,-2.84509851,7.47426510e-01,4.16843991e-05,7.43441991,-5.88455899e-01,-1,-0.9989083920316117
3.98594396e+02,1.99996818e+02,-7.68550583e-06,4.63777068,1.53544729,-2.84509851,7.47426511e-01,4.16847141e-05,7.43523467,-5.86012790e-01,-1,-0.9978167842519199
4.04379391e+02,1.99996774e+02,-7.68361486e-06,4.63822597,1.53449583,-2.84509852,7.47426511e-01,4.16850292e-05,7.43604942,-5.83569681e-01,-1,-0.9967251762835316
4.10164385e+02,1.99996729e+02,-7.68172389e-06,4.63868126,1.53354437,-2.84509852,7.47426511e-01,4.16853443e-05,7.43686417,-5.81126573e-01,-1,-0.9956335685038398
4.15949379e+02,1.99996685e+02,-7.67983291e-06,4.63913655,1.53259291,-2.84509852,7.47426511e-01,4.16856594e-05,7.43767892,-5.78683464e-01,-1,-0.994541960724148
4.21734374e+02,1.99996641e+02,-7.67794194e-06,4.63959184,1.53164145,-2.84509852,7.47426511e-01,4.16859744e-05,7.43849367,-5.76240355e-01,-1,-0.9934503527557597
4.27519368e+02,1.99996596e+02,-7.67605097e-06,4.64004713,1.53068999,-2.84509852,7.47426511e-01,4.16862895e-05,7.43930843,-5.73797246e-01,-1,-0.9923587449760679
4.33304363e+02,1.99996552e+02,-7.67415999e-06,4.64050242,1.52973853,-2.84509852,7.47426511e-01,4.16866046e-05,7.44012318,-5.71354138e-01,-1,-0.9912671370076797
4.39089357e+02,1.99996508e+02,-7.67226902e-06,4.64095771,1.52878707,-2.84509852,7.47426512e-01,4.16869197e-05,7.44093793,-5.68911029e-01,-1,-0.9901755292279878
4.44874351e+02,1.99996463e+02,-7.67037804e-06,4.64141300,1.52783561,-2.84509852,7.47426512e-01,4.16872348e-05,7.44175268,-5.66467920e-01,-1,-0.9890839214482959
4.50659346e+02,1.99996419e+02,-7.66848707e-06,4.64186829,1.52688415,-2.84509852,7.47426512e-01,4.16875498e-05,7.44256743,-5.64024811e-01,-1,-0.9879923134799077
4.56444340e+02,1.99996375e+02,-7.66659610e-06,4.64232358,1.52593269,-2.84509852,7.47426512e-01,4.16878649e-05,7.44338218,-5.61581703e-01,-1,-0.9869007057002158
4.62229335e+02,1.99996330e+02,-7.66470512e-06,4.64277888,1.52498123,-2.84509852,7.47426512e-01,4.16881800e-05,7.44419694,-5.59138594e-01,-1,-0.9858090977318276
4.68629401e+02,1.99996281e+02,-7.66262308e-06,4.64327011,1.52396091,-2.84509852,7.47426512e-01,4.16886574e-05,7.44508278,-5.56481657e-01,-1,-0.9846014280547041
4.75406907e+02,1.99996230e+02,-7.66042379e-06,4.64378341,1.52289833,-2.84509852,7.47426512e-01,4.16892345e-05,7.44601226,-5.53693504e-01,-1,-0.9833225367928449
4.82184413e+02,1.99996178e+02,-7.65822450e-06,4.64429670,1.52183576,-2.84509852,7.47426513e-01,4.16898116e-05,7.44694174,-5.50905351e-01,-1,-0.9820436455309857
4.88961920e+02,1.99996126e+02,-7.65602521e-06,4.64481000,1.52077318,-2.84509852,7.47426513e-01,4.16903886e-05,7.44787122,-5.48117198e-01,-1,-0.98076475408043
4.95739426e+02,1.99996074e+02,-7.65382592e-06,4.64532329,1.51971061,-2.84509852,7.47426513e-01,4.16909657e-05,7.44880069,-5.45329045e-01,-1,-0.9794858628185708
5.02516932e+02,1.99996022e+02,-7.65162663e-06,4.64583659,1.51864804,-2.84509852,7.47426513e-01,4.16915428e-05,7.44973017,-5.42540892e-01,-1,-0.9782069715567115
5.09294439e+02,1.99995971e+02,-7.64942734e-06,4.64634989,1.51758546,-2.84509852,7.47426513e-01,4.16921198e-05,7.45065965,-5.39752739e-01,-1,-0.9769280801061558
5.16071945e+02,1.99995919e+02,-7.64722805e-06,4.64686318,1.51652289,-2.84509852,7.47426513e-01,4.16926969e-05,7.45158912,-5.36964586e-01,-1,-0.9756491888442966
5.22849451e+02,1.99995867e+02,-7.64502876e-06,4.64737648,1.51546031,-2.84509852,7.47426513e-01,4.16932740e-05,7.45251860,-5.34176433e-01,-1,-0.9743702975824374
5.29626958e+02,1.99995815e+02,-7.64282947e-06,4.64788977,1.51439774,-2.84509852,7.47426513e-01,4.16938510e-05,7.45344808,-5.31388280e-01,-1,-0.9730914061318818
5.36749903e+02,1.99995761e+02,-7.64045295e-06,4.64842323,1.51329706,-2.84509852,7.47426513e-01,4.16945651e-05,7.45441625,-5.28484004e-01,-1,-0.971747331760099
5.44442420e+02,1.99995702e+02,-7.63778420e-06,4.64898992,1.51213357,-2.84509852,7.47426513e-01,4.16955050e-05,7.45544822,-5.25388262e-01,-1,-0.9702957811789555
5.52134936e+02,1.99995644e+02,-7.63511546e-06,4.64955661,1.51097008,-2.84509852,7.47426513e-01,4.16964450e-05,7.45648019,-5.22292519e-01,-1,-0.9688442307865085
5.59827453e+02,1.99995585e+02,-7.63244671e-06,4.65012330,1.50980659,-2.84509852,7.47426513e-01,4.16973849e-05,7.45751217,-5.19196776e-01,-1,-0.967392680205365
5.67519970e+02,1.99995526e+02,-7.62977797e-06,4.65068999,1.50864310,-2.84509852,7.47426513e-01,4.16983249e-05,7.45854414,-5.16101034e-01,-1,-0.9659411296242215
5.75212486e+02,1.99995468e+02,-7.62710922e-06,4.65125668,1.50747961,-2.84509852,7.47426513e-01,4.16992649e-05,7.45957611,-5.13005291e-01,-1,-0.9644895792317744
5.82905003e+02,1.99995409e+02,-7.62444048e-06,4.65182337,1.50631611,-2.84509852,7.47426513e-01,4.17002048e-05,7.46060808,-5.09909548e-01,-1,-0.9630380286506309
5.90597519e+02,1.99995351e+02,-7.62177173e-06,4.65239006,1.50515262,-2.84509853,7.47426513e-01,4.17011448e-05,7.46164006,-5.06813806e-01,-1,-0.9615864782581839
5.98290036e+02,1.99995292e+02,-7.61910299e-06,4.65295675,1.50398913,-2.84509853,7.47426513e-01,4.17020847e-05,7.46267203,-5.03718063e-01,-1,-0.9601349276770403
6.06630477e+02,1.99995229e+02,-7.61649791e-06,4.65355927,1.50275836,-2.84509853,7.47426513e-01,4.17034336e-05,7.46377199,-5.00418240e-01,-1,-0.9585611161429816
6.15302803e+02,1.99995163e+02,-7.61392544e-06,4.65418014,1.50149312,-2.84509853,7.47426513e-01,4.17049921e-05,7.46490678,-4.97013880e-01,-1,-0.9569246790905622
6.23975129e+02,1.99995097e+02,-7.61135298e-06,4.65480101,1.50022788,-2.84509853,7.47426513e-01,4.17065505e-05,7.46604157,-4.93609521e-01,-1,-0.9552882420381429
6.32647455e+02,1.99995031e+02,-7.60878051e-06,4.65542187,1.49896264,-2.84509853,7.47426513e-01,4.17081090e-05,7.46717636,-4.90205162e-01,-1,-0.9536518049857236
6.41319782e+02,1.99994965e+02,-7.60620804e-06,4.65604274,1.49769740,-2.84509853,7.47426513e-01,4.17096674e-05,7.46831114,-4.86800803e-01,-1,-0.9520153677446077
6.49992108e+02,1.99994899e+02,-7.60363558e-06,4.65666361,1.49643216,-2.84509853,7.47426512e-01,4.17112258e-05,7.46944593,-4.83396444e-01,-1,-0.9503789306921884
6.58664434e+02,1.99994833e+02,-7.60106311e-06,4.65728448,1.49516692,-2.84509853,7.47426512e-01,4.17127843e-05,7.47058072,-4.79992084e-01,-1,-0.9487424936397689
6.67336760e+02,1.99994768e+02,-7.59849064e-06,4.65790535,1.49390168,-2.84509853,7.47426512e-01,4.17143427e-05,7.47171551,-4.76587725e-01,-1,-0.9471060565873496
6.76009086e+02,1.99994702e+02,-7.59591818e-06,4.65852622,1.49263644,-2.84509853,7.47426512e-01,4.17159011e-05,7.47285030,-4.73183366e-01,-1,-0.9454696195349303
6.85130263e+02,1.99994633e+02,-7.59312072e-06,4.65916933,1.49132836,-2.84509853,7.47426512e-01,4.17179049e-05,7.47402830,-4.69649319e-01,-1,-0.9437484858962184
6.94972986e+02,1.99994558e+02,-7.58996158e-06,4.65984819,1.48995142,-2.84509853,7.47426511e-01,4.17206246e-05,7.47527578,-4.65906794e-01,-1,-0.9418911990952032
7.04815708e+02,1.99994484e+02,-7.58680244e-06,4.66052705,1.48857447,-2.84509853,7.47426510e-01,4.17233443e-05,7.47652326,-4.62164268e-01,-1,-0.9400339124828846
7.14658431e+02,1.99994409e+02,-7.58364329e-06,4.66120591,1.48719753,-2.84509853,7.47426510e-01,4.17260640e-05,7.47777074,-4.58421743e-01,-1,-0.9381766256818694
7.24501153e+02,1.99994335e+02,-7.58048415e-06,4.66188477,1.48582058,-2.84509853,7.47426509e-01,4.17287837e-05,7.47901821,-4.54679218e-01,-1,-0.9363193390695508
7.34343876e+02,1.99994260e+02,-7.57732501e-06,4.66256362,1.48444364,-2.84509853,7.47426509e-01,4.17315034e-05,7.48026569,-4.50936692e-01,-1,-0.9344620522685356
7.44186598e+02,1.99994186e+02,-7.57416587e-06,4.66324248,1.48306670,-2.84509853,7.47426508e-01,4.17342231e-05,7.48151317,-4.47194167e-01,-1,-0.932604765656217
7.54029321e+02,1.99994111e+02,-7.57100673e-06,4.66392134,1.48168975,-2.84509853,7.47426508e-01,4.17369428e-05,7.48276065,-4.43451642e-01,-1,-0.9307474788552018
7.63872043e+02,1.99994037e+02,-7.56784758e-06,4.66460020,1.48031281,-2.84509853,7.47426507e-01,4.17396625e-05,7.48400813,-4.39709116e-01,-1,-0.9288901922428832
7.73714765e+02,1.99993963e+02,-7.56468844e-06,4.66527906,1.47893586,-2.84509853,7.47426507e-01,4.17423822e-05,7.48525560,-4.35966591e-01,-1,-0.9270329056305645
7.84239776e+02,1.99993883e+02,-7.55979032e-06,4.66598819,1.47749800,-2.84509853,7.47426506e-01,4.17459539e-05,7.48656509,-4.32037152e-01,-1,-0.9250468735121316
7.95271075e+02,1.99993800e+02,-7.55360181e-06,4.66671980,1.47601492,-2.84509853,7.47426505e-01,4.17501578e-05,7.48792058,-4.27969015e-01,-1,-0.9229653066499175
8.06302373e+02,1.99993717e+02,-7.54741329e-06,4.66745140,1.47453185,-2.84509854,7.47426504e-01,4.17543618e-05,7.48927608,-4.23900878e-01,-1,-0.9208837399764
8.17333672e+02,1.99993635e+02,-7.54122478e-06,4.66818300,1.47304878,-2.84509854,7.47426503e-01,4.17585657e-05,7.49063158,-4.19832741e-01,-1,-0.918802173114186
8.28364970e+02,1.99993552e+02,-7.53503626e-06,4.66891460,1.47156570,-2.84509854,7.47426502e-01,4.17627696e-05,7.49198707,-4.15764604e-01,-1,-0.9167206064406684
8.39396269e+02,1.99993469e+02,-7.52884775e-06,4.66964620,1.47008263,-2.84509854,7.47426501e-01,4.17669735e-05,7.49334257,-4.11696467e-01,-1,-0.9146390395784545
8.50427567e+02,1.99993386e+02,-7.52265924e-06,4.67037780,1.46859956,-2.84509854,7.47426500e-01,4.17711775e-05,7.49469807,-4.07628330e-01,-1,-0.9125574729049369
8.61522370e+02,1.99993302e+02,-7.51637714e-06,4.67111230,1.46711086,-2.84509854,7.47426499e-01,4.17754903e-05,7.49605911,-4.03543597e-01,-1,-0.9104639230639262
8.73610910e+02,1.99993212e+02,-7.50863064e-06,4.67189217,1.46553409,-2.84509854,7.47426498e-01,4.17815065e-05,7.49750685,-3.99199157e-01,-1,-0.9081828585876077
8.85699450e+02,1.99993122e+02,-7.50088415e-06,4.67267204,1.46395732,-2.84509854,7.47426496e-01,4.17875227e-05,7.49895460,-3.94854716e-01,-1,-0.9059017941112891
8.97787990e+02,1.99993032e+02,-7.49313765e-06,4.67345191,1.46238055,-2.84509854,7.47426494e-01,4.17935389e-05,7.50040235,-3.90510276e-01,-1,-0.9036207296349705
9.09876529e+02,1.99992941e+02,-7.48539115e-06,4.67423178,1.46080378,-2.84509854,7.47426493e-01,4.17995551e-05,7.50185009,-3.86165836e-01,-1,-0.9013396653473486
9.21965069e+02,1.99992851e+02,-7.47764466e-06,4.67501165,1.45922702,-2.84509854,7.47426491e-01,4.18055713e-05,7.50329784,-3.81821396e-01,-1,-0.89905860087103
9.34053609e+02,1.99992761e+02,-7.46989816e-06,4.67579152,1.45765025,-2.84509854,7.47426490e-01,4.18115875e-05,7.50474558,-3.77476955e-01,-1,-0.8967775363947115
9.46736098e+02,1.99992667e+02,-7.46138312e-06,4.67659566,1.45602587,-2.84509854,7.47426488e-01,4.18189523e-05,7.50624026,-3.72991490e-01,-1,-0.894384395855887
9.59841106e+02,1.99992569e+02,-7.45232136e-06,4.67741706,1.45436762,-2.84509854,7.47426486e-01,4.18272764e-05,7.50776832,-3.68405703e-01,-1,-0.8919115274854577
9.72946114e+02,1.99992472e+02,-7.44325961e-06,4.67823846,1.45270938,-2.84509854,7.47426483e-01,4.18356005e-05,7.50929639,-3.63819917e-01,-1,-0.8894386591150283
9.86051122e+02,1.99992375e+02,-7.43419785e-06,4.67905986,1.45105113,-2.84509854,7.47426481e-01,4.18439246e-05,7.51082445,-3.59234130e-01,-1,-0.8869657907445989
9.99156131e+02,1.99992278e+02,-7.42513609e-06,4.67988126,1.44939288,-2.84509854,7.47426479e-01,4.18522487e-05,7.51235251,-3.54648343e-01,-1,-0.8844929221854732
1.01226114e+03,1.99992181e+02,-7.41607433e-06,4.68070266,1.44773463,-2.84509854,7.47426477e-01,4.18605728e-05,7.51388057,-3.50062557e-01,-1,-0.8820200536263474
1.02611903e+03,1.99992079e+02,-7.40708794e-06,4.68155216,1.44602208,-2.84509855,7.47426474e-01,4.18714284e-05,7.51546094,-3.45320122e-01,-1,-0.8794051191019358
1.04032868e+03,1.99991974e+02,-7.39813675e-06,4.68241477,1.44428416,-2.84509855,7.47426470e-01,4.18834667e-05,7.51706575,-3.40504498e-01,-1,-0.8767238087173964
1.05453833e+03,1.99991870e+02,-7.38918557e-06,4.68327739,1.44254624,-2.84509855,7.47426467e-01,4.18955051e-05,7.51867055,-3.35688873e-01,-1,-0.874042498332857
1.06874798e+03,1.99991765e+02,-7.38023439e-06,4.68414001,1.44080832,-2.84509855,7.47426463e-01,4.19075434e-05,7.52027536,-3.30873249e-01,-1,-0.8713611879483176
1.08295763e+03,1.99991661e+02,-7.37128321e-06,4.68500263,1.43907040,-2.84509855,7.47426460e-01,4.19195817e-05,7.52188017,-3.26057625e-01,-1,-0.8686798775637783
1.09716728e+03,1.99991556e+02,-7.36233202e-06,4.68586524,1.43733248,-2.84509855,7.47426456e-01,4.19316200e-05,7.52348497,-3.21242000e-01,-1,-0.865998567179239
1.11157430e+03,1.99991450e+02,-7.35314295e-06,4.68673366,1.43558296,-2.84509855,7.47426453e-01,4.19446045e-05,7.52510117,-3.16392186e-01,-1,-0.863280013778116
1.12710961e+03,1.99991337e+02,-7.34259394e-06,4.68763519,1.43376716,-2.84509855,7.47426447e-01,4.19629971e-05,7.52678249,-3.11346924e-01,-1,-0.8603485560694435
1.14264492e+03,1.99991224e+02,-7.33204494e-06,4.68853672,1.43195135,-2.84509855,7.47426442e-01,4.19813898e-05,7.52846381,-3.06301663e-01,-1,-0.857417098360771
1.15818023e+03,1.99991111e+02,-7.32149594e-06,4.68943825,1.43013554,-2.84509855,7.47426436e-01,4.19997824e-05,7.53014513,-3.01256401e-01,-1,-0.8544856406520984
1.17371553e+03,1.99990998e+02,-7.31094693e-06,4.69033978,1.42831974,-2.84509855,7.47426431e-01,4.20181751e-05,7.53182645,-2.96211140e-01,-1,-0.8515541848303902
1.18925084e+03,1.99990885e+02,-7.30039793e-06,4.69124131,1.42650393,-2.84509855,7.47426425e-01,4.20365678e-05,7.53350777,-2.91165878e-01,-1,-0.8486227271217178
1.20478615e+03,1.99990772e+02,-7.28984893e-06,4.69214284,1.42468813,-2.84509855,7.47426419e-01,4.20549604e-05,7.53518909,-2.86120617e-01,-1,-0.8456912694130453
1.22032146e+03,1.99990659e+02,-7.27929992e-06,4.69304437,1.42287232,-2.84509855,7.47426414e-01,4.20733531e-05,7.53687041,-2.81075355e-01,-1,-0.8427598117043728
1.23718592e+03,1.99990538e+02,-7.26216723e-06,4.69397655,1.42099050,-2.84509855,7.47426406e-01,4.20987602e-05,7.53862070,-2.75821455e-01,-1,-0.8395775481209876
1.25407942e+03,1.99990416e+02,-7.24489067e-06,4.69490939,1.41910724,-2.84509856,7.47426398e-01,4.21243206e-05,7.54037250,-2.70562996e-01,-1,-0.8363898047929523
1.27097292e+03,1.99990295e+02,-7.22761412e-06,4.69584224,1.41722397,-2.84509856,7.47426391e-01,4.21498811e-05,7.54212429,-2.65304536e-01,-1,-0.8332020614649172
1.28786643e+03,1.99990174e+02,-7.21033756e-06,4.69677508,1.41534071,-2.84509856,7.47426383e-01,4.21754415e-05,7.54387609,-2.60046077e-01,-1,-0.8300143162499174
1.30475993e+03,1.99990052e+02,-7.19306100e-06,4.69770792,1.41345744,-2.84509856,7.47426375e-01,4.22010019e-05,7.54562788,-2.54787617e-01,-1,-0.8268265729218822
1.32195286e+03,1.99989929e+02,-7.17548330e-06,4.69864820,1.41155946,-2.84509856,7.47426367e-01,4.22285845e-05,7.54739360,-2.49487477e-01,-1,-0.8235823282184829
1.34007183e+03,1.99989801e+02,-7.15697426e-06,4.69961145,1.40961594,-2.84509856,7.47426356e-01,4.22624214e-05,7.54920240,-2.44058429e-01,-1,-0.8201633430627502
1.35819079e+03,1.99989673e+02,-7.13846522e-06,4.70057471,1.40767242,-2.84509856,7.47426346e-01,4.22962582e-05,7.55101119,-2.38629381e-01,-1,-0.8167443597939819
1.37630976e+03,1.99989544e+02,-7.11995618e-06,4.70153796,1.40572890,-2.84509856,7.47426335e-01,4.23300951e-05,7.55281998,-2.33200333e-01,-1,-0.8133253746382492
1.39442872e+03,1.99989416e+02,-7.10144714e-06,4.70250122,1.40378538,-2.84509856,7.47426325e-01,4.23639319e-05,7.55462877,-2.27771286e-01,-1,-0.8099063913694808
1.41273070e+03,1.99989286e+02,-7.08322004e-06,4.70346804,1.40183491,-2.84509856,7.47426314e-01,4.23995503e-05,7.55644373,-2.22323819e-01,-1,-0.806452872878059
1.43216568e+03,1.99989151e+02,-7.06673837e-06,4.70445694,1.39984140,-2.84509857,7.47426299e-01,4.24461983e-05,7.55829682,-2.16762326e-01,-1,-0.8027855613188499
1.45160066e+03,1.99989015e+02,-7.05025671e-06,4.70544584,1.39784789,-2.84509857,7.47426284e-01,4.24928463e-05,7.56014992,-2.11200832e-01,-1,-0.7991182497596409
1.47103564e+03,1.99988879e+02,-7.03377505e-06,4.70643474,1.39585438,-2.84509857,7.47426270e-01,4.25394943e-05,7.56200302,-2.05639338e-01,-1,-0.7954509382004318
1.49047063e+03,1.99988743e+02,-7.01729339e-06,4.70742365,1.39386087,-2.84509857,7.47426255e-01,4.25861424e-05,7.56385612,-2.00077844e-01,-1,-0.7917836247542583
1.50990561e+03,1.99988607e+02,-7.00081172e-06,4.70841255,1.39186735,-2.84509857,7.47426240e-01,4.26327904e-05,7.56570922,-1.94516350e-01,-1,-0.7881163131950493
1.53002072e+03,1.99988467e+02,-6.98359503e-06,4.70940892,1.38985773,-2.84509857,7.47426223e-01,4.26878459e-05,7.56757730,-1.88909897e-01,-1,-0.7843206635253422
1.55104639e+03,1.99988323e+02,-6.96539427e-06,4.71041529,1.38782655,-2.84509857,7.47426202e-01,4.27541572e-05,7.56946543,-1.83243252e-01,-1,-0.7803531944242104
1.57207205e+03,1.99988178e+02,-6.94719352e-06,4.71142166,1.38579537,-2.84509857,7.47426181e-01,4.28204686e-05,7.57135355,-1.77576608e-01,-1,-0.7763857272100431
1.59309772e+03,1.99988034e+02,-6.92899277e-06,4.71242803,1.38376418,-2.84509857,7.47426159e-01,4.28867799e-05,7.57324168,-1.71909963e-01,-1,-0.7724182581089112
1.61412338e+03,1.99987889e+02,-6.91079201e-06,4.71343440,1.38173300,-2.84509857,7.47426138e-01,4.29530912e-05,7.57512981,-1.66243318e-01,-1,-0.7684507908947438
1.63514904e+03,1.99987745e+02,-6.89259126e-06,4.71444077,1.37970181,-2.84509858,7.47426117e-01,4.30194026e-05,7.57701794,-1.60576674e-01,-1,-0.7644833236805764
1.65632593e+03,1.99987599e+02,-6.87352578e-06,4.71544803,1.37766813,-2.84509858,7.47426095e-01,4.30874546e-05,7.57890890,-1.54901399e-01,-1,-0.7604873199036185
1.67898994e+03,1.99987447e+02,-6.84595657e-06,4.71646410,1.37560989,-2.84509858,7.47426068e-01,4.31726242e-05,7.58082766,-1.49141256e-01,-1,-0.7562107018751446
1.70165396e+03,1.99987294e+02,-6.81838735e-06,4.71748017,1.37355165,-2.84509858,7.47426041e-01,4.32577938e-05,7.58274641,-1.43381113e-01,-1,-0.7519340819597062
1.72431797e+03,1.99987141e+02,-6.79081814e-06,4.71849624,1.37149341,-2.84509858,7.47426014e-01,4.33429634e-05,7.58466517,-1.37620970e-01,-1,-0.7476574639312323
1.74698199e+03,1.99986989e+02,-6.76324893e-06,4.71951231,1.36943518,-2.84509858,7.47425986e-01,4.34281331e-05,7.58658393,-1.31860827e-01,-1,-0.7433808440157941
1.76964600e+03,1.99986836e+02,-6.73567972e-06,4.72052838,1.36737694,-2.84509858,7.47425959e-01,4.35133027e-05,7.58850269,-1.26100684e-01,-1,-0.7391042259873202
1.79375171e+03,1.99986677e+02,-6.70841498e-06,4.72155554,1.36529568,-2.84509858,7.47425925e-01,4.36185230e-05,7.59043970,-1.20286164e-01,-1,-0.7345555642996857
1.81790753e+03,1.99986517e+02,-6.68116083e-06,4.72258308,1.36321363,-2.84509859,7.47425891e-01,4.37244403e-05,7.59237735,-1.14469754e-01,-1,-0.7299974470333868
1.84206336e+03,1.99986357e+02,-6.65390667e-06,4.72361062,1.36113158,-2.84509859,7.47425857e-01,4.38303576e-05,7.59431499,-1.08653344e-01,-1,-0.7254393278801234
1.86621918e+03,1.99986198e+02,-6.62665252e-06,4.72463816,1.35904953,-2.84509859,7.47425823e-01,4.39362750e-05,7.59625264,-1.02836935e-01,-1,-0.7208812106138246
1.89091085e+03,1.99986036e+02,-6.60071580e-06,4.72566738,1.35696407,-2.84509859,7.47425786e-01,4.40519933e-05,7.59819081,-9.70343271e-02,-1,-0.7162219803595524
1.91668737e+03,1.99985868e+02,-6.57744631e-06,4.72670001,1.35487170,-2.84509859,7.47425742e-01,4.41875547e-05,7.60013003,-9.12596636e-02,-1,-0.7113580427711328
1.94246390e+03,1.99985701e+02,-6.55417682e-06,4.72773264,1.35277933,-2.84509859,7.47425698e-01,4.43231160e-05,7.60206925,-8.54850000e-02,-1,-0.7064941032957488
1.96824042e+03,1.99985534e+02,-6.53090733e-06,4.72876527,1.35068696,-2.84509859,7.47425654e-01,4.44586773e-05,7.60400847,-7.97103365e-02,-1,-0.7016301657073292
1.99401694e+03,1.99985367e+02,-6.50763784e-06,4.72979790,1.34859459,-2.84509860,7.47425610e-01,4.45942386e-05,7.60594768,-7.39356729e-02,-1,-0.6967662281189095
2.02002157e+03,1.99985199e+02,-6.48422789e-06,4.73083114,1.34650079,-2.84509860,7.47425565e-01,4.47340196e-05,7.60788778,-6.81596371e-02,-1,-0.6918592469853063
