star_age,star_mass,star_mdot,log_Teff,log_R,log_surf_z,surface_h1,surface_he3,log_center_T,log_center_Rho,phase,x
9.14321428e+02,9.99999932e-01,-7.41932600e-11,3.68887580,1.18395173,-3.84509847,7.50629130e-01,4.13624919e-05,5.71436785,-2.53896497,-1,-1.0
9.61576839e+02,9.99999929e-01,-7.30043744e-11,3.68910363,1.18124293,-3.84509847,7.50629130e-01,4.13624919e-05,5.71693882,-2.53128187,-1,-0.9999971237869828
1.01124003e+03,9.99999925e-01,-7.17777113e-11,3.68933863,1.17844383,-3.84509847,7.50629130e-01,4.13624919e-05,5.71959611,-2.52334086,-1,-0.9999941010238026
1.06341877e+03,9.99999921e-01,-7.05235146e-11,3.68958422,1.17555345,-3.84509847,7.50629130e-01,4.13624919e-05,5.72234054,-2.51513803,-1,-0.9999909251510711
1.11821132e+03,9.99999917e-01,-6.92478090e-11,3.68983781,1.17257125,-3.84509847,7.50629130e-01,4.13624919e-05,5.72517266,-2.50667312,-1,-0.9999875901881066
1.17571423e+03,9.99999914e-01,-6.79512959e-11,3.69009364,1.16949738,-3.84509847,7.50629130e-01,4.13624919e-05,5.72809252,-2.49794477,-1,-0.999984090258368
1.23623742e+03,9.99999910e-01,-6.66436529e-11,3.69035733,1.16632518,-3.84509847,7.50629130e-01,4.13624919e-05,5.73110656,-2.48893439,-1,-0.9999804064984928
1.30002256e+03,9.99999905e-01,-6.53193270e-11,3.69062872,1.16305101,-3.84509847,7.50629130e-01,4.13624919e-05,5.73421810,-2.47963192,-1,-0.9999765241991732
1.36686639e+03,9.99999901e-01,-6.39819716e-11,3.69090557,1.15968501,-3.84509847,7.50629130e-01,4.13624920e-05,5.73741740,-2.47006651,-1,-0.9999724557318823
1.43716703e+03,9.99999897e-01,-6.26215677e-11,3.69118947,1.15621941,-3.84509847,7.50629130e-01,4.13624920e-05,5.74071216,-2.46021395,-1,-0.9999681768649418
1.51117080e+03,9.99999892e-01,-6.12625603e-11,3.69148045,1.15265158,-3.84509847,7.50629130e-01,4.13624920e-05,5.74410490,-2.45007028,-1,-0.99996367260602
1.58874342e+03,9.99999887e-01,-5.99021883e-11,3.69178048,1.14898965,-3.84509847,7.50629130e-01,4.13624920e-05,5.74758781,-2.43965445,-1,-0.9999589511281045
1.67053915e+03,9.99999883e-01,-5.85310388e-11,3.69208853,1.14522115,-3.84509847,7.50629130e-01,4.13624921e-05,5.75117314,-2.42893197,-1,-0.9999539726094883
1.75628822e+03,9.99999878e-01,-5.71551028e-11,3.69241501,1.14135715,-3.84509847,7.50629130e-01,4.13624921e-05,5.75485010,-2.41793585,-1,-0.9999487534697933
1.84652592e+03,9.99999873e-01,-5.57762955e-11,3.69273853,1.13739006,-3.84509847,7.50629130e-01,4.13624922e-05,5.75862660,-2.40664044,-1,-0.9999432611284531
1.94138744e+03,9.99999867e-01,-5.43994573e-11,3.69306892,1.13332234,-3.84509847,7.50629130e-01,4.13624922e-05,5.76249995,-2.39505494,-1,-0.9999374873570925
2.04087640e+03,9.99999862e-01,-5.30216858e-11,3.69340589,1.12915882,-3.84509847,7.50629130e-01,4.13624923e-05,5.76646563,-2.38319313,-1,-0.9999314319353796
2.14563585e+03,9.99999857e-01,-5.16454783e-11,3.69374953,1.12489144,-3.84509847,7.50629130e-01,4.13624924e-05,5.77053177,-2.37103187,-1,-0.9999250557239068
2.25572795e+03,9.99999851e-01,-5.02635130e-11,3.69409809,1.12052500,-3.84509847,7.50629130e-01,4.13624926e-05,5.77469318,-2.35858343,-1,-0.9999183549392895
2.37134293e+03,9.99999845e-01,-4.89022428e-11,3.69445403,1.11606131,-3.84509847,7.50629130e-01,4.13624927e-05,5.77894854,-2.34585406,-1,-0.9999113180031285
2.49277927e+03,9.99999840e-01,-4.75465823e-11,3.69481650,1.11150076,-3.84509847,7.50629130e-01,4.13624929e-05,5.78329732,-2.33284333,-1,-0.9999039267483604
2.62036325e+03,9.99999834e-01,-4.61980319e-11,3.69518543,1.10684349,-3.84509847,7.50629130e-01,4.13624932e-05,5.78773969,-2.31954981,-1,-0.999896161315867
2.75445127e+03,9.99999828e-01,-4.48601331e-11,3.69558476,1.10208858,-3.84509847,7.50629130e-01,4.13624935e-05,5.79227673,-2.30597159,-1,-0.9998880000132686
2.89536374e+03,9.99999821e-01,-4.35443119e-11,3.69597787,1.09723697,-3.84509847,7.50629130e-01,4.13624939e-05,5.79690764,-2.29211231,-1,-0.9998794233387264
3.04341969e+03,9.99999815e-01,-4.22410938e-11,3.69636664,1.09229217,-3.84509847,7.50629130e-01,4.13624945e-05,5.80162903,-2.27798053,-1,-0.9998704118743954
3.19900158e+03,9.99999809e-01,-4.09470150e-11,3.69676255,1.08725445,-3.84509847,7.50629130e-01,4.13624951e-05,5.80644071,-2.26357721,-1,-0.9998609423417473
3.36248700e+03,9.99999802e-01,-3.96683078e-11,3.69716409,1.08212520,-3.84509847,7.50629130e-01,4.13624960e-05,5.81134077,-2.24890920,-1,-0.9998509917586673
3.53426221e+03,9.99999796e-01,-3.84068358e-11,3.69757401,1.07690593,-3.84509847,7.50629130e-01,4.13624970e-05,5.81632855,-2.23397465,-1,-0.999840536615339
3.71472007e+03,9.99999789e-01,-3.71636881e-11,3.69798707,1.07159849,-3.84509847,7.50629130e-01,4.13624984e-05,5.82140168,-2.21878332,-1,-0.9998295530002352
3.90425627e+03,9.99999782e-01,-3.59448106e-11,3.69840475,1.06620493,-3.84509847,7.50629130e-01,4.13625002e-05,5.82656010,-2.20333486,-1,-0.9998180168295799
4.10330911e+03,9.99999775e-01,-3.47460991e-11,3.69882594,1.06073263,-3.84509847,7.50629130e-01,4.13625024e-05,5.83170324,-2.18781213,-1,-0.9998059014261286
4.31224867e+03,9.99999768e-01,-3.35565082e-11,3.69925000,1.05517632,-3.84509847,7.50629130e-01,4.13625053e-05,5.83699254,-2.17194090,-1,-0.9997931842648644
4.53211079e+03,9.99999761e-01,-3.24112040e-11,3.69968139,1.04953207,-3.84509847,7.50629130e-01,4.13625091e-05,5.84239473,-2.15575972,-1,-0.9997798022991136
4.76294273e+03,9.99999753e-01,-3.12819258e-11,3.70012642,1.04380938,-3.84509847,7.50629130e-01,4.13625140e-05,5.84787008,-2.13935687,-1,-0.9997657526523838
5.00514761e+03,9.99999746e-01,-3.01762583e-11,3.70056674,1.03801145,-3.84509847,7.50629130e-01,4.13625203e-05,5.85341973,-2.12273268,-1,-0.99975101078867
5.25993177e+03,9.99999739e-01,-2.90957396e-11,3.70100859,1.03213502,-3.84509847,7.50629130e-01,4.13625286e-05,5.85905063,-2.10586425,-1,-0.9997355032837711
5.52733864e+03,9.99999731e-01,-2.80351107e-11,3.70145141,1.02618613,-3.84509847,7.50629130e-01,4.13625394e-05,5.86475373,-2.08878171,-1,-0.9997192274943087
5.80818282e+03,9.99999723e-01,-2.70058896e-11,3.70189562,1.02016525,-3.84509847,7.50629130e-01,4.13625534e-05,5.87052935,-2.07147813,-1,-0.9997021338394396
6.10331231e+03,9.99999716e-01,-2.59992889e-11,3.70234459,1.01407562,-3.84509847,7.50629130e-01,4.13625719e-05,5.87637254,-2.05397252,-1,-0.9996841707054207
6.41313133e+03,9.99999708e-01,-2.50200276e-11,3.70280675,1.00791675,-3.84509847,7.50629130e-01,4.13625960e-05,5.88228520,-2.03625696,-1,-0.9996653134892954
6.73868973e+03,9.99999700e-01,-2.40700698e-11,3.70326478,1.00169232,-3.84509847,7.50629130e-01,4.13626277e-05,5.88826237,-2.01834805,-1,-0.9996454982916675
7.08055013e+03,9.99999692e-01,-2.31453196e-11,3.70372283,9.95405669e-01,-3.84509847,7.50629130e-01,4.13626694e-05,5.89430170,-2.00024907,-1,-0.9996246908685227
7.43944023e+03,9.99999684e-01,-2.22448285e-11,3.70417995,9.89059013e-01,-3.84509847,7.50629130e-01,4.13627242e-05,5.90040206,-1.98197022,-1,-0.999602846928209
7.81678394e+03,9.99999675e-01,-2.13731181e-11,3.70465489,9.82651913e-01,-3.84509847,7.50629130e-01,4.13627969e-05,5.90656366,-1.96351305,-1,-0.9995798798040699
8.21267539e+03,9.99999667e-01,-2.05278798e-11,3.70511416,9.76188274e-01,-3.84509847,7.50629130e-01,4.13628925e-05,5.91278244,-1.94488223,-1,-0.9995557837668583
8.62856173e+03,9.99999659e-01,-1.97085077e-11,3.70557325,9.69671111e-01,-3.84509847,7.50629130e-01,4.13630189e-05,5.91905429,-1.92608805,-1,-0.9995304707354088
9.06553823e+03,9.99999651e-01,-1.89121405e-11,3.70603138,9.63100239e-01,-3.84509847,7.50629130e-01,4.13631867e-05,5.92538044,-1.90712479,-1,-0.9995038740458247
9.52421254e+03,9.99999642e-01,-1.81441429e-11,3.70648962,9.56479219e-01,-3.84509847,7.50629130e-01,4.13634085e-05,5.93175712,-1.88801209,-1,-0.9994759567133293
1.00056937e+04,9.99999634e-01,-1.74001802e-11,3.70694768,9.49810254e-01,-3.84509847,7.50629130e-01,4.13637015e-05,5.93818262,-1.86875293,-1,-0.999446651235911
1.05118631e+04,9.99999625e-01,-1.66816154e-11,3.70740549,9.43093858e-01,-3.84509847,7.50629130e-01,4.13640927e-05,5.94465625,-1.84934986,-1,-0.9994158431022729
1.10433203e+04,9.99999617e-01,-1.59863189e-11,3.70786215,9.36332760e-01,-3.84509847,7.50629130e-01,4.13646117e-05,5.95117593,-1.82980612,-1,-0.9993834958200378
1.16013474e+04,9.99999608e-01,-1.53168413e-11,3.70832128,9.29532185e-01,-3.84509847,7.50629129e-01,4.13653005e-05,5.95773581,-1.81014112,-1,-0.9993495313538523
1.21872454e+04,9.99999599e-01,-1.46698791e-11,3.70877487,9.22690308e-01,-3.84509847,7.50629129e-01,4.13662150e-05,5.96433824,-1.79034718,-1,-0.9993138705180089
1.28025120e+04,9.99999590e-01,-1.40493022e-11,3.70923038,9.15810793e-01,-3.84509847,7.50629129e-01,4.13674304e-05,5.97097940,-1.77043648,-1,-0.9992764221546035
1.34486278e+04,9.99999582e-01,-1.34505233e-11,3.70968852,9.08896604e-01,-3.84509847,7.50629128e-01,4.13690462e-05,5.97765662,-1.75041641,-1,-0.9992370961465279
1.41275327e+04,9.99999573e-01,-1.28737357e-11,3.71014324,9.01947796e-01,-3.84509847,7.50629128e-01,4.13712034e-05,5.98436984,-1.73029075,-1,-0.9991957744212581
1.48404539e+04,9.99999564e-01,-1.23195933e-11,3.71059472,8.94970171e-01,-3.84509847,7.50629127e-01,4.13740745e-05,5.99111432,-1.71006916,-1,-0.9991523822849435
1.55890986e+04,9.99999555e-01,-1.17862942e-11,3.71104496,8.87963592e-01,-3.84509847,7.50629125e-01,4.13778954e-05,5.99788966,-1.68975454,-1,-0.9991068158284073
1.63753308e+04,9.99999546e-01,-1.12729021e-11,3.71150197,8.80930801e-01,-3.84509847,7.50629124e-01,4.13829783e-05,6.00469295,-1.66935423,-1,-0.9990589615987991
1.72009571e+04,9.99999537e-01,-1.07822693e-11,3.71194647,8.73877757e-01,-3.84509847,7.50629121e-01,4.13897423e-05,6.01151824,-1.64888917,-1,-0.9990087096369351
1.80680791e+04,9.99999528e-01,-1.03098750e-11,3.71239344,8.66807675e-01,-3.84509847,7.50629118e-01,4.13987383e-05,6.01836265,-1.62836387,-1,-0.9989559320283785
1.89787383e+04,9.99999519e-01,-9.85810074e-12,3.71283229,8.59726581e-01,-3.84509847,7.50629114e-01,4.14106990e-05,6.02522051,-1.60779713,-1,-0.9989005045166949
1.99351759e+04,9.99999509e-01,-9.42473643e-12,3.71326637,8.52638909e-01,-3.84509847,7.50629109e-01,4.14265872e-05,6.03208754,-1.58720404,-1,-0.998842290690657
2.09397795e+04,9.99999500e-01,-9.00985613e-12,3.71369670,8.45553340e-01,-3.84509847,7.50629102e-01,4.14476709e-05,6.03895446,-1.56661014,-1,-0.9987811452283629
2.19950646e+04,9.99999491e-01,-8.61362496e-12,3.71412411,8.38478655e-01,-3.84509847,7.50629093e-01,4.14756111e-05,6.04581260,-1.54604094,-1,-0.9987169150232436
2.31037001e+04,9.99999482e-01,-8.23559184e-12,3.71454976,8.31425427e-01,-3.84509847,7.50629080e-01,4.15125713e-05,6.05265242,-1.52552487,-1,-0.9986494376319988
2.42684081e+04,9.99999472e-01,-7.87552430e-12,3.71496489,8.24406651e-01,-3.84509847,7.50629064e-01,4.15613489e-05,6.05946210,-1.50509948,-1,-0.998578547373296
2.54923059e+04,9.99999463e-01,-7.53376886e-12,3.71537461,8.17441364e-01,-3.84509847,7.50629043e-01,4.16255552e-05,6.06622330,-1.48482105,-1,-0.9985040545118512
2.67785888e+04,9.99999454e-01,-7.20995685e-12,3.71577945,8.10547963e-01,-3.84509847,7.50629015e-01,4.17097663e-05,6.07291707,-1.46474277,-1,-0.9984257645648895
2.81305472e+04,9.99999444e-01,-6.90353686e-12,3.71616965,8.03751629e-01,-3.84509847,7.50628978e-01,4.18196632e-05,6.07951792,-1.44494317,-1,-0.9983434772613498
2.95520557e+04,9.99999435e-01,-6.61497191e-12,3.71655373,7.97082373e-01,-3.84509847,7.50628931e-01,4.19622416e-05,6.08599648,-1.42550981,-1,-0.9982569567726839
3.10466644e+04,9.99999425e-01,-6.34560791e-12,3.71692215,7.90573291e-01,-3.84509847,7.50628869e-01,4.21458010e-05,6.09232048,-1.40653947,-1,-0.9981659870211218
3.26200859e+04,9.99999415e-01,-6.09433602e-12,3.71727577,7.84266626e-01,-3.84509847,7.50628791e-01,4.23811552e-05,6.09845019,-1.38814963,-1,-0.9980702203077625
3.42760657e+04,9.99999406e-01,-5.86168056e-12,3.71761250,7.78201692e-01,-3.84509847,7.50628692e-01,4.26790296e-05,6.10434764,-1.37045519,-1,-0.9979694286617633
3.60175373e+04,9.99999396e-01,-5.64745039e-12,3.71793042,7.72413869e-01,-3.84509847,7.50628568e-01,4.30495643e-05,6.10997798,-1.35356472,-1,-0.9978634335348753
3.78531898e+04,9.99999386e-01,-5.45136746e-12,3.71822421,7.66951912e-01,-3.84509847,7.50628415e-01,4.35078896e-05,6.11529304,-1.33762297,-1,-0.9977517060627422
3.97832052e+04,9.99999375e-01,-5.27457721e-12,3.71849993,7.61826834e-01,-3.84509847,7.50628231e-01,4.40600116e-05,6.12028119,-1.32266177,-1,-0.997634235167886
4.18191497e+04,9.99999365e-01,-5.11538779e-12,3.71875311,7.57076488e-01,-3.84509847,7.50628011e-01,4.47209599e-05,6.12490542,-1.30878804,-1,-0.9975103168705022
4.39622200e+04,9.99999354e-01,-4.97222521e-12,3.71898531,7.52682330e-01,-3.84509847,7.50627754e-01,4.54916564e-05,6.12918365,-1.29595527,-1,-0.9973798783331306
4.62177012e+04,9.99999343e-01,-4.84343696e-12,3.71919822,7.48619965e-01,-3.84509847,7.50627460e-01,4.63732068e-05,6.13313965,-1.28408616,-1,-0.9972425978767697
4.85898263e+04,9.99999332e-01,-4.72699094e-12,3.71939458,7.44845127e-01,-3.84509847,7.50627131e-01,4.73616394e-05,6.13681620,-1.27305596,-1,-0.9970982178587616
5.10903394e+04,9.99999320e-01,-4.62089103e-12,3.71957726,7.41306810e-01,-3.84509847,7.50626766e-01,4.84549319e-05,6.14026308,-1.26271388,-1,-0.9969460234713715
5.37210563e+04,9.99999308e-01,-4.52212421e-12,3.71975095,7.37919493e-01,-3.84509847,7.50626372e-01,4.96385089e-05,6.14356362,-1.25281238,-1,-0.9967859041954547
5.64796388e+04,9.99999296e-01,-4.42793323e-12,3.71992386,7.34602348e-01,-3.84509847,7.50625953e-01,5.08957352e-05,6.14679633,-1.24311332,-1,-0.996618002346169
5.93925509e+04,9.99999283e-01,-4.33612739e-12,3.72009128,7.31267148e-01,-3.84509847,7.50625511e-01,5.22205269e-05,6.15004705,-1.23336014,-1,-0.9964407071851955
6.24394484e+04,9.99999270e-01,-4.24307014e-12,3.72026238,7.27836951e-01,-3.84509847,7.50625056e-01,5.35864174e-05,6.15339073,-1.22332945,-1,-0.9962552569676169
6.56556253e+04,9.99999257e-01,-4.14704374e-12,3.72044418,7.24186255e-01,-3.84509847,7.50624591e-01,5.49808389e-05,6.15695023,-1.21264938,-1,-0.996059503514842
6.90195162e+04,9.99999243e-01,-4.04608342e-12,3.72063842,7.20260262e-01,-3.84509847,7.50624125e-01,5.63785075e-05,6.16077849,-1.20116386,-1,-0.9958547594106126
7.25573408e+04,9.99999229e-01,-3.93642649e-12,3.72085287,7.15915761e-01,-3.84509847,7.50623667e-01,5.77540802e-05,6.16501571,-1.18845125,-1,-0.9956394287859937
7.62652014e+04,9.99999215e-01,-3.81625191e-12,3.72108749,7.11055854e-01,-3.84509847,7.50623226e-01,5.90764081e-05,6.16975639,-1.17422741,-1,-0.9954137488755204
8.01454987e+04,9.99999201e-01,-3.68305081e-12,3.72135029,7.05564109e-01,-3.84509847,7.50622814e-01,6.03106983e-05,6.17511441,-1.15815075,-1,-0.9951775735599561
8.42016029e+04,9.99999186e-01,-3.53737603e-12,3.72164663,6.99306387e-01,-3.84509847,7.50622447e-01,6.14136160e-05,6.18122073,-1.13982780,-1,-0.9949306977111914
8.84370708e+04,9.99999171e-01,-3.37657482e-12,3.72198206,6.92143591e-01,-3.84509847,7.50622140e-01,6.23351756e-05,6.18821208,-1.11884735,-1,-0.9946729048436589
9.28453638e+04,9.99999157e-01,-3.20246505e-12,3.72235482,6.84026062e-01,-3.84509847,7.50621905e-01,6.30397163e-05,6.19613773,-1.09506513,-1,-0.9944045929309673
9.74310550e+04,9.99999143e-01,-3.01805425e-12,3.72275852,6.74968752e-01,-3.84509847,7.50621750e-01,6.35036827e-05,6.20498397,-1.06851557,-1,-0.9941254836301823
1.02200672e+05,9.99999129e-01,-2.83068312e-12,3.72319002,6.65170797e-01,-3.84509847,7.50621667e-01,6.37532398e-05,6.21455750,-1.03978567,-1,-0.9938351796372135
1.07177437e+05,9.99999116e-01,-2.64754553e-12,3.72363810,6.54949068e-01,-3.84509847,7.50621634e-01,6.38517452e-05,6.22454838,-1.00980461,-1,-0.9935322675267511
1.12388234e+05,9.99999102e-01,-2.47452658e-12,3.72407153,6.44634236e-01,-3.84509847,7.50621625e-01,6.38772500e-05,6.23463406,-9.79533561e-01,-1,-0.9932151109970653
1.17859984e+05,9.99999089e-01,-2.31477553e-12,3.72449374,6.34417083e-01,-3.84509847,7.50621624e-01,6.38810467e-05,6.24462926,-9.49535130e-01,-1,-0.9928820714944119
1.23605332e+05,9.99999077e-01,-2.16726560e-12,3.72489420,6.24355085e-01,-3.84509847,7.50621624e-01,6.38813544e-05,6.25448293,-9.19961293e-01,-1,-0.9925323793775406
1.29642818e+05,9.99999064e-01,-2.03139167e-12,3.72527861,6.14450901e-01,-3.84509847,7.50621624e-01,6.38813656e-05,6.26420595,-8.90803297e-01,-1,-0.9921649062044758
1.35985502e+05,9.99999052e-01,-1.90518641e-12,3.72564385,6.04695304e-01,-3.84509847,7.50621624e-01,6.38813657e-05,6.27378735,-8.62071877e-01,-1,-0.9917788570748833
1.42648038e+05,9.99999039e-01,-1.78876930e-12,3.72599480,5.95078532e-01,-3.84509847,7.50621624e-01,6.38813657e-05,6.28320791,-8.33797101e-01,-1,-0.9913733400691995
1.49646387e+05,9.99999027e-01,-1.68052526e-12,3.72633350,5.85590276e-01,-3.84509847,7.50621624e-01,6.38813657e-05,6.29250553,-8.05892285e-01,-1,-0.9909473837169621
1.56997056e+05,9.99999016e-01,-1.57981051e-12,3.72665751,5.76223765e-01,-3.84509847,7.50621624e-01,6.38813657e-05,6.30168684,-7.78330634e-01,-1,-0.9904999833152753
1.64717551e+05,9.99999004e-01,-1.48628281e-12,3.72696534,5.66972595e-01,-3.84509847,7.50621624e-01,6.38813657e-05,6.31075691,-7.51099203e-01,-1,-0.9900300733568456
1.72827652e+05,9.99998992e-01,-1.39923383e-12,3.72726847,5.57827600e-01,-3.84509847,7.50621624e-01,6.38813657e-05,6.31972542,-7.24174237e-01,-1,-0.9895364499267713
1.81345305e+05,9.99998981e-01,-1.31785047e-12,3.72755941,5.48782054e-01,-3.84509847,7.50621624e-01,6.38813657e-05,6.32859926,-6.97530894e-01,-1,-0.9890180207370433
1.90289071e+05,9.99998969e-01,-1.24199785e-12,3.72782725,5.39832197e-01,-3.84509847,7.50621624e-01,6.38813658e-05,6.33738205,-6.71162254e-01,-1,-0.9884736560675156
1.99681627e+05,9.99998958e-01,-1.17107418e-12,3.72808379,5.30972135e-01,-3.84509847,7.50621624e-01,6.38813658e-05,6.34607878,-6.45051572e-01,-1,-0.9879019756766197
2.09544202e+05,9.99998947e-01,-1.10470467e-12,3.72832680,5.22197931e-01,-3.84509847,7.50621624e-01,6.38813658e-05,6.35469365,-6.19183359e-01,-1,-0.9873016874556882
2.19898856e+05,9.99998936e-01,-1.04238683e-12,3.72855276,5.13504239e-01,-3.84509847,7.50621624e-01,6.38813658e-05,6.36323215,-5.93545338e-01,-1,-0.98667144871702
2.30777760e+05,9.99998925e-01,-9.84202701e-13,3.72876884,5.04886481e-01,-3.84509847,7.50621624e-01,6.38813658e-05,6.37169895,-5.68123700e-01,-1,-0.9860093013642399
2.42201761e+05,9.99998914e-01,-9.29584209e-13,3.72897606,4.96340172e-01,-3.84509847,7.50621624e-01,6.38813658e-05,6.38009645,-5.42908681e-01,-1,-0.985313976539211
2.54194065e+05,9.99998903e-01,-8.78215668e-13,3.72916705,4.87862766e-01,-3.84509847,7.50621624e-01,6.38813658e-05,6.38842789,-5.17890479e-01,-1,-0.9845840618026407
2.66783705e+05,9.99998893e-01,-8.29969959e-13,3.72934646,4.79450599e-01,-3.84509847,7.50621624e-01,6.38813658e-05,6.39669621,-4.93059129e-01,-1,-0.9838177900533492
2.80012658e+05,9.99998882e-01,-7.84724485e-13,3.72951322,4.71101741e-01,-3.84509847,7.50621624e-01,6.38813659e-05,6.40490497,-4.68404124e-01,-1,-0.983012606350193
2.93897813e+05,9.99998872e-01,-7.42122876e-13,3.72966750,4.62811150e-01,-3.84509847,7.50621624e-01,6.38813659e-05,6.41305797,-4.43916573e-01,-1,-0.9821674827397456
3.08473135e+05,9.99998861e-01,-7.02002302e-13,3.72980858,4.54576571e-01,-3.84509847,7.50621624e-01,6.38813659e-05,6.42110166,-4.19530365e-01,-1,-0.9812803519333504
3.23786320e+05,9.99998851e-01,-6.64227921e-13,3.72993975,4.46397209e-01,-3.84509847,7.50621624e-01,6.38813660e-05,6.42896052,-3.95146776e-01,-1,-0.9803483109014247
3.39856786e+05,9.99998841e-01,-6.28672900e-13,3.73007145,4.38268993e-01,-3.84509847,7.50621624e-01,6.38813661e-05,6.43672194,-3.70627356e-01,-1,-0.9793701777622922
3.56735410e+05,9.99998830e-01,-5.95240378e-13,3.73017979,4.30195845e-01,-3.84509847,7.50621624e-01,6.38813662e-05,6.44425370,-3.46213119e-01,-1,-0.9783428558739687
3.74453836e+05,9.99998820e-01,-5.63618983e-13,3.73027678,4.22175023e-01,-3.84509847,7.50621624e-01,6.38813663e-05,6.45164225,-3.21772346e-01,-1,-0.977264419216073
3.93055010e+05,9.99998810e-01,-5.33895475e-13,3.73035946,4.14207013e-01,-3.84509847,7.50621624e-01,6.38813664e-05,6.45889760,-2.97299336e-01,-1,-0.9761322538690214
