star_age,star_mass,star_mdot,log_Teff,log_R,log_surf_z,surface_h1,surface_he3,log_center_T,log_center_Rho,phase,x
3.24902338e+02,3.19999979,-5.54506978e-10,3.66498075,1.67531278,-3.84509851,7.50629133e-01,4.13624916e-05,5.71378090,-3.53064187,-1,-1.0
3.40019574e+02,3.19999978,-5.47598018e-10,3.66513702,1.67328507,-3.84509851,7.50629133e-01,4.13624916e-05,5.71575342,-3.52473503,-1,-0.9999859856044055
3.55804081e+02,3.19999977,-5.40634600e-10,3.66530017,1.67119382,-3.84509851,7.50629133e-01,4.13624916e-05,5.71778737,-3.51864377,-1,-0.9999713526169095
3.64084179e+02,3.19999977,-5.35908893e-10,3.67172689,1.66967782,-3.84509851,7.50629133e-01,4.13624916e-05,5.71892487,-3.51524569,-1,-0.9999636765728938
3.68179324e+02,3.19999977,-5.32412512e-10,3.68157413,1.66848421,-3.84509851,7.50629133e-01,4.13624916e-05,5.71956479,-3.51334242,-1,-0.999959880179026
3.76543757e+02,3.19999976,-6.10377884e-10,3.68834237,1.66678880,-3.84509848,7.50629131e-01,4.13624918e-05,5.72086482,-3.50945799,-1,-0.9999521259524607
3.93956347e+02,3.19999975,-6.33314477e-10,3.68869056,1.66404329,-3.84509847,7.50629130e-01,4.13624918e-05,5.72353960,-3.50144637,-1,-0.9999359836547163
4.12161372e+02,3.19999974,-6.24402327e-10,3.68897307,1.66122487,-3.84509847,7.50629130e-01,4.13624918e-05,5.72628726,-3.49321486,-1,-0.999919106732099
4.31266786e+02,3.19999973,-6.15224489e-10,3.68926255,1.65832531,-3.84509847,7.50629130e-01,4.13624918e-05,5.72911367,-3.48474869,-1,-0.9999013951061251
4.51198548e+02,3.19999972,-6.05334539e-10,3.68955910,1.65535231,-3.84509847,7.50629130e-01,4.13624918e-05,5.73201198,-3.47606671,-1,-0.9998829174163171
4.72003893e+02,3.19999970,-5.94795541e-10,3.68986302,1.65230302,-3.84509847,7.50629130e-01,4.13624918e-05,5.73498480,-3.46715990,-1,-0.999863629873587
4.93801647e+02,3.19999969,-5.83904990e-10,3.69017506,1.64916943,-3.84509847,7.50629130e-01,4.13624918e-05,5.73803992,-3.45800774,-1,-0.9998434223205908
5.16639413e+02,3.19999968,-5.72826858e-10,3.69049629,1.64595060,-3.84509847,7.50629130e-01,4.13624918e-05,5.74117832,-3.44860498,-1,-0.9998222506270869
5.40472283e+02,3.19999967,-5.61586251e-10,3.69082894,1.64265282,-3.84509847,7.50629130e-01,4.13624918e-05,5.74439382,-3.43897226,-1,-0.9998001564249237
5.65347320e+02,3.19999965,-5.50287839e-10,3.69116526,1.63927560,-3.84509847,7.50629130e-01,4.13624918e-05,5.74768707,-3.42910444,-1,-0.9997770960844655
5.91488282e+02,3.19999964,-5.39059513e-10,3.69150835,1.63580634,-3.84509847,7.50629130e-01,4.13624918e-05,5.75107055,-3.41896760,-1,-0.9997528621714217
6.18734137e+02,3.19999962,-5.27743025e-10,3.69185833,1.63226032,-3.84509847,7.50629130e-01,4.13624918e-05,5.75452900,-3.40860539,-1,-0.9997276039701023
6.47248266e+02,3.19999961,-5.16380388e-10,3.69221603,1.62862940,-3.84509847,7.50629130e-01,4.13624918e-05,5.75807062,-3.39799422,-1,-0.9997011700185626
6.77085256e+02,3.19999959,-5.04997940e-10,3.69258146,1.62491406,-3.84509847,7.50629130e-01,4.13624918e-05,5.76169492,-3.38713416,-1,-0.9996735097120615
7.08235836e+02,3.19999958,-4.93600507e-10,3.69295389,1.62111843,-3.84509847,7.50629130e-01,4.13624918e-05,5.76539770,-3.37603870,-1,-0.9996446316452563
7.40865001e+02,3.19999956,-4.82101011e-10,3.69334782,1.61723509,-3.84509847,7.50629130e-01,4.13624918e-05,5.76918615,-3.36468700,-1,-0.9996143828599474
7.74959950e+02,3.19999955,-4.70777950e-10,3.69373487,1.61327047,-3.84509847,7.50629130e-01,4.13624919e-05,5.77305417,-3.35309554,-1,-0.9995827752232697
8.10571002e+02,3.19999953,-4.59572486e-10,3.69413171,1.60922555,-3.84509847,7.50629130e-01,4.13624919e-05,5.77700080,-3.34126715,-1,-0.9995497620871208
8.47894273e+02,3.19999951,-4.48329680e-10,3.69453434,1.60509429,-3.84509847,7.50629130e-01,4.13624919e-05,5.78103194,-3.32918779,-1,-0.9995151616426562
8.86838289e+02,3.19999950,-4.37102843e-10,3.69494380,1.60088510,-3.84509847,7.50629130e-01,4.13624919e-05,5.78513955,-3.31687800,-1,-0.9994790586906178
9.27563114e+02,3.19999948,-4.26002933e-10,3.69535972,1.59659467,-3.84509847,7.50629130e-01,4.13624919e-05,5.78932676,-3.30432850,-1,-0.9994413048440769
9.70219689e+02,3.19999946,-4.15023450e-10,3.69583093,1.59221762,-3.84509847,7.50629130e-01,4.13624919e-05,5.79359819,-3.29152804,-1,-0.9994017601735593
1.01476116e+03,3.19999944,-4.04093173e-10,3.69626573,1.58776412,-3.84509847,7.50629130e-01,4.13624919e-05,5.79794529,-3.27850043,-1,-0.9993604681149479
1.06129894e+03,3.19999942,-3.93249555e-10,3.69670848,1.58323310,-3.84509847,7.50629130e-01,4.13624919e-05,5.80236820,-3.26524186,-1,-0.9993173253831014
1.10993579e+03,3.19999940,-3.82527513e-10,3.69715804,1.57862461,-3.84509847,7.50629130e-01,4.13624919e-05,5.80686725,-3.25175642,-1,-0.9992722367136931
1.16085981e+03,3.19999939,-3.71916815e-10,3.69761432,1.57393667,-3.84509847,7.50629130e-01,4.13624920e-05,5.81144399,-3.23803788,-1,-0.9992250277290916
1.21408518e+03,3.19999937,-3.61375803e-10,3.69807811,1.56917320,-3.84509847,7.50629130e-01,4.13624920e-05,5.81609500,-3.22409532,-1,-0.9991756852837634
1.26971505e+03,3.19999935,-3.50968729e-10,3.69856398,1.56433367,-3.84509847,7.50629130e-01,4.13624920e-05,5.82082052,-3.20992760,-1,-0.9991241137527607
1.32785596e+03,3.19999933,-3.40754665e-10,3.69903772,1.55942104,-3.84509847,7.50629130e-01,4.13624921e-05,5.82561837,-3.19554418,-1,-0.9990702143684445
1.38861644e+03,3.19999931,-3.30511614e-10,3.69951955,1.55443551,-3.84509847,7.50629130e-01,4.13624922e-05,5.83048798,-3.18094585,-1,-0.9990138865183512
1.45211909e+03,3.19999929,-3.20519871e-10,3.70002915,1.54937600,-3.84509847,7.50629130e-01,4.13624922e-05,5.83543087,-3.16613019,-1,-0.9989550165464597
1.51853907e+03,3.19999927,-3.10796013e-10,3.70052800,1.54424581,-3.84509847,7.50629130e-01,4.13624924e-05,5.84044359,-3.15110307,-1,-0.9988934420711324
1.58798756e+03,3.19999924,-3.00938325e-10,3.70103312,1.53904440,-3.84509847,7.50629130e-01,4.13624925e-05,5.84552652,-3.13586553,-1,-0.9988290600232302
1.66048880e+03,3.19999922,-2.91554501e-10,3.70153824,1.53377687,-3.84509847,7.50629130e-01,4.13624927e-05,5.85067470,-3.12043313,-1,-0.9987618479311222
1.73636505e+03,3.19999920,-2.82846130e-10,3.70204863,1.52844629,-3.84509847,7.50629130e-01,4.13624929e-05,5.85588439,-3.10481349,-1,-0.9986915070444862
1.81566101e+03,3.19999918,-2.73882270e-10,3.70255990,1.52305356,-3.84509847,7.50629130e-01,4.13624932e-05,5.86115521,-3.08901230,-1,-0.9986179959242996
1.89854135e+03,3.19999916,-2.64954681e-10,3.70309513,1.51759657,-3.84509847,7.50629130e-01,4.13624935e-05,5.86648916,-3.07301880,-1,-0.9985411619136534
1.98513591e+03,3.19999913,-2.56388549e-10,3.70363791,1.51207766,-3.84509847,7.50629130e-01,4.13624940e-05,5.87188436,-3.05684053,-1,-0.9984608846447022
2.07559839e+03,3.19999911,-2.47961692e-10,3.70416961,1.50650041,-3.84509847,7.50629130e-01,4.13624946e-05,5.87733814,-3.04048739,-1,-0.9983770216302478
2.17021975e+03,3.19999909,-2.39686560e-10,3.70470425,1.50086378,-3.84509847,7.50629130e-01,4.13624953e-05,5.88285112,-3.02395526,-1,-0.9982893031365543
2.26914431e+03,3.19999907,-2.31579776e-10,3.70524519,1.49516955,-3.84509847,7.50629130e-01,4.13624963e-05,5.88842154,-3.00725368,-1,-0.9981975953721289
2.37248920e+03,3.19999904,-2.23658272e-10,3.70578619,1.48942339,-3.84509847,7.50629130e-01,4.13624976e-05,5.89393066,-2.99059578,-1,-0.9981017897518998
2.48041596e+03,3.19999902,-2.15979717e-10,3.70632947,1.48362473,-3.84509847,7.50629130e-01,4.13624992e-05,5.89954662,-2.97369033,-1,-0.9980017365206165
2.59337490e+03,3.19999900,-2.08464840e-10,3.70688968,1.47776925,-3.84509847,7.50629130e-01,4.13625013e-05,5.90526451,-2.95653279,-1,-0.9978970182195267
2.71135388e+03,3.19999897,-2.01109122e-10,3.70744199,1.47186273,-3.84509847,7.50629130e-01,4.13625040e-05,5.91104065,-2.93920651,-1,-0.9977876461029868
2.83456429e+03,3.19999895,-1.93952931e-10,3.70799670,1.46590612,-3.84509847,7.50629130e-01,4.13625075e-05,5.91686602,-2.92173308,-1,-0.997673424202429
2.96350355e+03,3.19999892,-1.87075887e-10,3.70856174,1.45989919,-3.84509847,7.50629130e-01,4.13625121e-05,5.92274625,-2.90409558,-1,-0.9975538913858942
3.09805895e+03,3.19999890,-1.80339775e-10,3.70912828,1.45384748,-3.84509847,7.50629130e-01,4.13625180e-05,5.92867155,-2.88632505,-1,-0.9974291521409043
3.23888069e+03,3.19999887,-1.73835855e-10,3.70969113,1.44775081,-3.84509847,7.50629130e-01,4.13625258e-05,5.93464149,-2.86842362,-1,-0.9972986037011853
3.38587891e+03,3.19999885,-1.67492087e-10,3.71025659,1.44161201,-3.84509847,7.50629130e-01,4.13625358e-05,5.94065360,-2.85039657,-1,-0.9971623293712241
3.53961373e+03,3.19999882,-1.61271027e-10,3.71081995,1.43542940,-3.84509847,7.50629130e-01,4.13625488e-05,5.94670888,-2.83223645,-1,-0.9970198098931841
3.70012071e+03,3.19999880,-1.55276140e-10,3.71138426,1.42920770,-3.84509847,7.50629130e-01,4.13625656e-05,5.95280291,-2.81395971,-1,-0.9968710123012567
3.86810332e+03,3.19999877,-1.49489823e-10,3.71197988,1.42294141,-3.84509847,7.50629130e-01,4.13625877e-05,5.95894218,-2.79554348,-1,-0.9967152844453487
4.04344745e+03,3.19999875,-1.43894199e-10,3.71255561,1.41663974,-3.84509847,7.50629130e-01,4.13626164e-05,5.96511780,-2.77702322,-1,-0.9965527321108485
4.22673666e+03,3.19999872,-1.38431990e-10,3.71313023,1.41030050,-3.84509847,7.50629130e-01,4.13626537e-05,5.97133211,-2.75838960,-1,-0.9963828143099263
4.41836951e+03,3.19999870,-1.33216105e-10,3.71370773,1.40392671,-3.84509847,7.50629130e-01,4.13627026e-05,5.97758161,-2.73964948,-1,-0.9962051615585371
4.61849652e+03,3.19999867,-1.27899214e-10,3.71429009,1.39751616,-3.84509847,7.50629130e-01,4.13627659e-05,5.98386755,-2.72079925,-1,-0.9960196343174936
4.82768524e+03,3.19999864,-1.22925318e-10,3.71487284,1.39106885,-3.84509847,7.50629130e-01,4.13628484e-05,5.99019006,-2.70183829,-1,-0.9958257064409965
5.04628260e+03,3.19999862,-1.18182928e-10,3.71546078,1.38459214,-3.84509847,7.50629130e-01,4.13629562e-05,5.99654132,-2.68278990,-1,-0.9956230563084624
5.27462328e+03,3.19999859,-1.13537578e-10,3.71604396,1.37808342,-3.84509847,7.50629130e-01,4.13630963e-05,6.00292496,-2.66363922,-1,-0.9954113736556391
5.51342872e+03,3.19999857,-1.09123890e-10,3.71664230,1.37154376,-3.84509847,7.50629130e-01,4.13632798e-05,6.00934071,-2.64439304,-1,-0.9951899896733902
5.76289654e+03,3.19999854,-1.04857193e-10,3.71722889,1.36497768,-3.84509847,7.50629130e-01,4.13635193e-05,6.01578351,-2.62506852,-1,-0.994958721158592
6.02346896e+03,3.19999851,-1.00740974e-10,3.71781634,1.35838547,-3.84509847,7.50629130e-01,4.13638313e-05,6.02225354,-2.60566403,-1,-0.994717158152306
6.29600894e+03,3.19999849,-9.67657981e-11,3.71841649,1.35176624,-3.84509847,7.50629130e-01,4.13642407e-05,6.02875060,-2.58617477,-1,-0.994464500649636
6.58067319e+03,3.19999846,-9.29331761e-11,3.71900586,1.34512393,-3.84509847,7.50629130e-01,4.13647742e-05,6.03527106,-2.56661629,-1,-0.9942006033729704
6.87804901e+03,3.19999843,-8.92377646e-11,3.71959248,1.33845903,-3.84509847,7.50629129e-01,4.13654696e-05,6.04181435,-2.54698796,-1,-0.9939249218673225
7.18903708e+03,3.19999840,-8.56732659e-11,3.72018849,1.33177146,-3.84509847,7.50629129e-01,4.13663810e-05,6.04838066,-2.52728965,-1,-0.9936366211595643
7.51380107e+03,3.19999838,-8.22466542e-11,3.72077883,1.32506495,-3.84509847,7.50629129e-01,4.13675632e-05,6.05495257,-2.50751642,-1,-0.9933355495198344
7.85321884e+03,3.19999835,-7.90170833e-11,3.72137166,1.31834196,-3.84509847,7.50629128e-01,4.13691088e-05,6.06147773,-2.48761687,-1,-0.9930208931302286
8.20806187e+03,3.19999832,-7.58011462e-11,3.72196621,1.31160152,-3.84509847,7.50629128e-01,4.13710763e-05,6.06796365,-2.46758729,-1,-0.9926919367921541
8.57886260e+03,3.19999830,-7.28542415e-11,3.72255973,1.30484725,-3.84509847,7.50629127e-01,4.13735327e-05,6.07441042,-2.44743464,-1,-0.9923481869084487
8.96613563e+03,3.19999827,-6.99678331e-11,3.72314762,1.29808547,-3.84509847,7.50629126e-01,4.13765492e-05,6.08081649,-2.42717675,-1,-0.9919891664204775
9.37095308e+03,3.19999824,-6.71395155e-11,3.72374062,1.29131313,-3.84509847,7.50629125e-01,4.13802067e-05,6.08719268,-2.40680556,-1,-0.991613881422092
9.79411298e+03,3.19999821,-6.44052445e-11,3.72432356,1.28453226,-3.84509847,7.50629123e-01,4.13846243e-05,6.09354397,-2.38632988,-1,-0.9912215921015889
1.02362206e+04,3.19999819,-6.17946771e-11,3.72490687,1.27774614,-3.84509847,7.50629121e-01,4.13898489e-05,6.09987820,-2.36576719,-1,-0.9908117373449378
1.06980902e+04,3.19999816,-5.92803565e-11,3.72548767,1.27095760,-3.84509847,7.50629119e-01,4.13959603e-05,6.10619914,-2.34512899,-1,-0.9903835622944543
1.11807571e+04,3.19999813,-5.68628420e-11,3.72607520,1.26416902,-3.84509847,7.50629117e-01,4.14030749e-05,6.11251378,-2.32443191,-1,-0.989936107159338
1.16855890e+04,3.19999810,-5.45542374e-11,3.72665346,1.25738561,-3.84509847,7.50629114e-01,4.14113654e-05,6.11882183,-2.30369205,-1,-0.9894681040167451
1.22130825e+04,3.19999807,-5.23294818e-11,3.72722962,1.25061141,-3.84509847,7.50629111e-01,4.14209582e-05,6.12513600,-2.28294983,-1,-0.9889790924948954
1.27643091e+04,3.19999805,-5.02105439e-11,3.72780255,1.24385154,-3.84509847,7.50629107e-01,4.14320234e-05,6.13145762,-2.26222820,-1,-0.9884680792624099
1.33403263e+04,3.19999802,-4.81769501e-11,3.72837206,1.23711126,-3.84509847,7.50629103e-01,4.14447987e-05,6.13778801,-2.24156092,-1,-0.9879340839665747
1.39426356e+04,3.19999799,-4.62319377e-11,3.72893773,1.23039647,-3.84509847,7.50629098e-01,4.14595430e-05,6.14413376,-2.22098727,-1,-0.9873757146455929
1.45725639e+04,3.19999796,-4.43743212e-11,3.72949886,1.22371435,-3.84509847,7.50629092e-01,4.14765687e-05,6.15051785,-2.20049865,-1,-0.9867917412001586
1.52309762e+04,3.19999793,-4.26003827e-11,3.73005471,1.21707195,-3.84509847,7.50629086e-01,4.14962493e-05,6.15689556,-2.18020162,-1,-0.9861813617341981
1.59192275e+04,3.19999790,-4.09041534e-11,3.73061083,1.21047700,-3.84509847,7.50629078e-01,4.15189898e-05,6.16325516,-2.16012588,-1,-0.9855433200983711
1.66388721e+04,3.19999788,-3.92937553e-11,3.73115286,1.20393949,-3.84509847,7.50629069e-01,4.15454263e-05,6.16958102,-2.14026297,-1,-0.9848761753827737
1.73920706e+04,3.19999785,-3.77658042e-11,3.73168813,1.19746980,-3.84509847,7.50629059e-01,4.15765201e-05,6.17582726,-2.12060651,-1,-0.9841779246086126
1.81793938e+04,3.19999782,-3.63090065e-11,3.73221632,1.19107407,-3.84509847,7.50629047e-01,4.16129139e-05,6.18195546,-2.10109644,-1,-0.983448038617184
1.90022989e+04,3.19999779,-3.49250613e-11,3.73273668,1.18475823,-3.84509847,7.50629033e-01,4.16559142e-05,6.18788278,-2.08172681,-1,-0.9826851665148947
1.98641395e+04,3.19999776,-3.36115034e-11,3.73324501,1.17853174,-3.84509847,7.50629015e-01,4.17074334e-05,6.19354817,-2.06233914,-1,-0.9818861993553033
2.07646699e+04,3.19999773,-3.23580606e-11,3.73374565,1.17239171,-3.84509847,7.50628995e-01,4.17683960e-05,6.19891298,-2.04283089,-1,-0.9810513649139766
2.17066335e+04,3.19999770,-3.11776574e-11,3.73424012,1.16634037,-3.84509847,7.50628971e-01,4.18424101e-05,6.20394916,-2.02307139,-1,-0.9801781199288476
2.26919654e+04,3.19999767,-3.00513174e-11,3.73473196,1.16037449,-3.84509847,7.50628941e-01,4.19312551e-05,6.20866991,-2.00295487,-1,-0.9792646704703308
2.37217757e+04,3.19999764,-2.89822728e-11,3.73521501,1.15448933,-3.84509847,7.50628906e-01,4.20367548e-05,6.21307477,-1.98252227,-1,-0.9783099874230146
2.47993106e+04,3.19999761,-2.79636738e-11,3.73569413,1.14868005,-3.84509847,7.50628865e-01,4.21599576e-05,6.21734099,-1.96157592,-1,-0.977311061405357
2.59252229e+04,3.19999758,-2.69900756e-11,3.73617034,1.14293905,-3.84509847,7.50628818e-01,4.22999108e-05,6.22151367,-1.94022950,-1,-0.9762672872407608
2.71031765e+04,3.19999755,-2.60634170e-11,3.73664777,1.13726217,-3.84509847,7.50628766e-01,4.24552374e-05,6.22566387,-1.91846856,-1,-0.9751752683199506
2.83343283e+04,3.19999752,-2.51787938e-11,3.73712457,1.13164411,-3.84509847,7.50628711e-01,4.26224710e-05,6.22984761,-1.89636757,-1,-0.9740339321416923
2.96218623e+04,3.19999749,-2.43327781e-11,3.73760366,1.12608179,-3.84509847,7.50628652e-01,4.27988569e-05,6.23410513,-1.87395275,-1,-0.9728403269867978
3.09681525e+04,3.19999745,-2.35241009e-11,3.73808578,1.12056933,-3.84509847,7.50628591e-01,4.29806448e-05,6.23845916,-1.85122121,-1,-0.9715922520445408
3.23753257e+04,3.19999742,-2.27500294e-11,3.73856611,1.11510212,-3.84509847,7.50628530e-01,4.31645077e-05,6.24292531,-1.82819406,-1,-0.970287735670333
3.38472407e+04,3.19999739,-2.20073516e-11,3.73905037,1.10967425,-3.84509847,7.50628469e-01,4.33474459e-05,6.24752200,-1.80485611,-1,-0.968923200573344
3.53850976e+04,3.19999735,-2.12919652e-11,3.73954058,1.10427793,-3.84509847,7.50628409e-01,4.35269494e-05,6.25226395,-1.78119051,-1,-0.967497534203889
3.69938418e+04,3.19999732,-2.06082421e-11,3.74003282,1.09890801,-3.84509847,7.50628351e-01,4.37008096e-05,6.25717868,-1.75714464,-1,-0.9660061519413417
3.86744336e+04,3.19999729,-1.99497508e-11,3.74053500,1.09355720,-3.84509847,7.50628296e-01,4.38677482e-05,6.26231126,-1.73261928,-1,-0.9644481635420035
4.04321226e+04,3.19999725,-1.93133893e-11,3.74104682,1.08822191,-3.84509847,7.50628243e-01,4.40265870e-05,6.26756399,-1.70783024,-1,-0.9628187023774041
4.22691579e+04,3.19999722,-1.87039542e-11,3.74156888,1.08289735,-3.84509847,7.50628193e-01,4.41768912e-05,6.27300288,-1.68264649,-1,-0.9611156834250478
4.41887215e+04,3.19999718,-1.81153260e-11,3.74210101,1.07758397,-3.84509847,7.50628146e-01,4.43184256e-05,6.27863616,-1.65705340,-1,-0.9593361568198414
4.61966633e+04,3.19999715,-1.75479455e-11,3.74265082,1.07228165,-3.84509847,7.50628102e-01,4.44506748e-05,6.28447567,-1.63100620,-1,-0.95747469942671
4.82935011e+04,3.19999711,-1.70022800e-11,3.74320717,1.06699377,-3.84509847,7.50628061e-01,4.45739023e-05,6.29051203,-1.60450863,-1,-0.9555308312204664
5.04866737e+04,3.19999708,-1.64775815e-11,3.74377701,1.06172855,-3.84509847,7.50628023e-01,4.46878474e-05,6.29674899,-1.57754694,-1,-0.9534976560802889
5.27792129e+04,3.19999704,-1.59717665e-11,3.74435643,1.05649379,-3.84509847,7.50627988e-01,4.47926788e-05,6.30317809,-1.55011248,-1,-0.9513723633836163
5.51746818e+04,3.19999700,-1.54904920e-11,3.74495272,1.05129847,-3.84509847,7.50627956e-01,4.48884669e-05,6.30979888,-1.52220300,-1,-0.9491516499675594
5.76781721e+04,3.19999696,-1.50297006e-11,3.74556344,1.04615506,-3.84509847,7.50627927e-01,4.49753615e-05,6.31660807,-1.49381584,-1,-0.9468307955844454
6.02979095e+04,3.19999692,-1.45913020e-11,3.74618992,1.04107966,-3.84509847,7.50627902e-01,4.50531471e-05,6.32360612,-1.46492748,-1,-0.9444021746197875
6.30360653e+04,3.19999689,-1.41751144e-11,3.74683264,1.03608560,-3.84509848,7.50627879e-01,4.51224749e-05,6.33079533,-1.43554259,-1,-0.9418637741753844
6.58984199e+04,3.19999685,-1.37819405e-11,3.74749269,1.03119138,-3.84509848,7.50627858e-01,4.51834464e-05,6.33818062,-1.40565039,-1,-0.9392102355459611
6.88910037e+04,3.19999681,-1.34126256e-11,3.74817154,1.02641798,-3.84509848,7.50627841e-01,4.52362957e-05,6.34576516,-1.37524048,-1,-0.9364359682643718
7.20201835e+04,3.19999676,-1.30687563e-11,3.74887887,1.02178946,-3.84509848,7.50627826e-01,4.52812683e-05,6.35354991,-1.34428765,-1,-0.9335350700046974
7.52926159e+04,3.19999672,-1.27501831e-11,3.74960375,1.01733496,-3.84509848,7.50627814e-01,4.53189416e-05,6.36154755,-1.31277636,-1,-0.9305013697826576
7.87165571e+04,3.19999668,-1.24598899e-11,3.75035008,1.01309124,-3.84509848,7.50627804e-01,4.53497851e-05,6.36976796,-1.28068186,-1,-0.9273272137088175
8.22972588e+04,3.19999663,-1.21980390e-11,3.75112325,1.00909618,-3.84509848,7.50627796e-01,4.53744584e-05,6.37821996,-1.24799352,-1,-0.924007733207907
8.60419975e+04,3.19999659,-1.19687383e-11,3.75192700,1.00539688,-3.84509848,7.50627790e-01,4.53936439e-05,6.38690999,-1.21468191,-1,-0.9205361826189107
8.99578552e+04,3.19999654,-1.17736988e-11,3.75276937,1.00204746,-3.84509848,7.50627786e-01,4.54079684e-05,6.39585991,-1.18071841,-1,-0.9169059965915488
9.40521784e+04,3.19999650,-1.16182336e-11,3.75364791,9.99116548e-01,-3.84509848,7.50627783e-01,4.54182837e-05,6.40508553,-1.14607438,-1,-0.9131103645714825
