star_age,star_mass,star_mdot,log_L,log_Teff,log_R,log_surf_z,v_wind_Km_per_s,log_center_T,log_center_Rho,phase,x
4.79579581e+03,4.49999969e-01,-5.42531784e-12,9.43299864e-01,3.57988179,8.34563494e-01,-1.84510049,2.19078548e-05,5.73882200,-1.81958540,-1,-1.0
5.05827580e+03,4.49999968e-01,-5.33996295e-12,9.38856580e-01,3.57999161,8.32122223e-01,-1.84510026,2.17886896e-05,5.74109120,-1.81281339,-1,-0.9999984420591662
5.33499717e+03,4.49999966e-01,-5.25281908e-12,9.34238805e-01,3.58010341,8.29589733e-01,-1.84510006,2.16650223e-05,5.74344580,-1.80578585,-1,-0.9999967995891177
5.62682857e+03,4.49999965e-01,-5.16382448e-12,9.29469144e-01,3.58022414,8.26963449e-01,-1.84509989,2.15383432e-05,5.74588846,-1.79849572,-1,-0.9999950674340128
5.93476192e+03,4.49999963e-01,-5.07335467e-12,9.24488037e-01,3.58034007,8.24241032e-01,-1.84509974,2.14066547e-05,5.74842114,-1.79093579,-1,-0.9999932397063447
6.25950681e+03,4.49999962e-01,-4.98084757e-12,9.19313341e-01,3.58045594,8.21421940e-01,-1.84509958,2.12673702e-05,5.75104466,-1.78310443,-1,-0.9999913121943668
6.60166581e+03,4.49999960e-01,-4.88666953e-12,9.13978101e-01,3.58058002,8.18506153e-01,-1.84509943,2.11247099e-05,5.75375902,-1.77499991,-1,-0.9999892813215457
6.96191719e+03,4.49999958e-01,-4.79142561e-12,9.08461878e-01,3.58070731,8.15493480e-01,-1.84509928,2.09789003e-05,5.75656459,-1.76662232,-1,-0.9999871430620337
7.34148332e+03,4.49999956e-01,-4.69516527e-12,9.02752739e-01,3.58083602,8.12381488e-01,-1.84509914,2.08290943e-05,5.75946359,-1.75796384,-1,-0.9999848901604962
7.74221802e+03,4.49999955e-01,-4.59772787e-12,8.96870974e-01,3.58097401,8.09164615e-01,-1.84509902,2.06769024e-05,5.76246105,-1.74901109,-1,-0.9999825116136491
8.16492517e+03,4.49999953e-01,-4.49889906e-12,8.90744949e-01,3.58110245,8.05844726e-01,-1.84509892,2.05153736e-05,5.76555568,-1.73976652,-1,-0.9999800026500907
8.61010356e+03,4.49999951e-01,-4.39905167e-12,8.84439930e-01,3.58123694,8.02423231e-01,-1.84509883,2.03501205e-05,5.76874600,-1.73023595,-1,-0.9999773603092704
9.07934527e+03,4.49999949e-01,-4.29907771e-12,8.77987982e-01,3.58138697,7.98897209e-01,-1.84509876,2.01868281e-05,5.77203481,-1.72041008,-1,-0.9999745751414527
9.57419672e+03,4.49999947e-01,-4.19820470e-12,8.71267689e-01,3.58152225,7.95266489e-01,-1.84509870,2.00132846e-05,5.77542278,-1.71028739,-1,-0.9999716379679158
1.00956254e+04,4.49999945e-01,-4.09631035e-12,8.64353416e-01,3.58166134,7.91531185e-01,-1.84509866,1.98341868e-05,5.77890948,-1.69986957,-1,-0.9999685430461563
1.06457203e+04,4.49999942e-01,-3.99422629e-12,8.57235405e-01,3.58180265,7.87689556e-01,-1.84509861,1.96514844e-05,5.78249700,-1.68914786,-1,-0.999965277977047
1.12244556e+04,4.49999940e-01,-3.89178898e-12,8.49904079e-01,3.58194142,7.83746343e-01,-1.84509858,1.94632088e-05,5.78618099,-1.67813905,-1,-0.9999618429138416
1.18359812e+04,4.49999938e-01,-3.78927721e-12,8.42339003e-01,3.58207647,7.79693715e-01,-1.84509855,1.92690555e-05,5.78996893,-1.66681880,-1,-0.9999582132249532
1.24792725e+04,4.49999935e-01,-3.68629907e-12,8.34560763e-01,3.58221595,7.75525635e-01,-1.84509853,1.90707939e-05,5.79380746,-1.65527066,-1,-0.9999543949918593
1.31563440e+04,4.49999933e-01,-3.58290004e-12,8.26515190e-01,3.58235030,7.71234148e-01,-1.84509851,1.88641027e-05,5.79779488,-1.64331956,-1,-0.9999503762575656
1.38720151e+04,4.49999930e-01,-3.47990292e-12,8.18302981e-01,3.58248985,7.66848941e-01,-1.84509850,1.86549362e-05,5.80185214,-1.63113464,-1,-0.9999461284166912
1.46256195e+04,4.49999928e-01,-3.37851156e-12,8.09885816e-01,3.58262372,7.62372622e-01,-1.84509849,1.84448323e-05,5.80603738,-1.61861065,-1,-0.9999416554240365
1.54193585e+04,4.49999925e-01,-3.27711274e-12,8.01259497e-01,3.58276113,7.57784639e-01,-1.84509848,1.82286510e-05,5.81033233,-1.60576093,-1,-0.9999369442138621
1.62557083e+04,4.49999923e-01,-3.17702649e-12,7.92491669e-01,3.58291404,7.53094903e-01,-1.84509848,1.80167304e-05,5.81472166,-1.59262474,-1,-0.9999319800887692
1.71368582e+04,4.49999920e-01,-3.07783363e-12,7.83471328e-01,3.58304529,7.48322237e-01,-1.84509848,1.77943612e-05,5.81919528,-1.57923863,-1,-0.9999267500542439
1.80653598e+04,4.49999917e-01,-2.97936004e-12,7.74250677e-01,3.58317060,7.43461294e-01,-1.84509848,1.75653716e-05,5.82375505,-1.56559496,-1,-0.9999212389653535
1.90436552e+04,4.49999914e-01,-2.88275216e-12,7.64812256e-01,3.58329279,7.38497692e-01,-1.84509848,1.73371610e-05,5.82841286,-1.55165499,-1,-0.9999154323270982
2.00744096e+04,4.49999911e-01,-2.78667242e-12,7.55186138e-01,3.58340963,7.33450957e-01,-1.84509847,1.71001961e-05,5.83315241,-1.53747206,-1,-0.9999093143202766
2.11602424e+04,4.49999908e-01,-2.69246390e-12,7.45361195e-01,3.58352892,7.28299907e-01,-1.84509847,1.68653403e-05,5.83799208,-1.52298977,-1,-0.9999028693975313
2.23042453e+04,4.49999905e-01,-2.59876539e-12,7.35359982e-01,3.58364046,7.23076232e-01,-1.84509847,1.66201565e-05,5.84290367,-1.50829092,-1,-0.9998960792081844
2.35101878e+04,4.49999902e-01,-2.50782406e-12,7.25137742e-01,3.58374779,7.17750443e-01,-1.84509847,1.63790122e-05,5.84791320,-1.49330083,-1,-0.9998889213785002
2.47801047e+04,4.49999899e-01,-2.41862460e-12,7.14767460e-01,3.58385744,7.12345999e-01,-1.84509847,1.61370058e-05,5.85299965,-1.47807816,-1,-0.9998813838309941
2.61169032e+04,4.49999896e-01,-2.33056601e-12,7.04188591e-01,3.58395422,7.06863012e-01,-1.84509847,1.58875021e-05,5.85816251,-1.46262446,-1,-0.9998734493100819
2.75260749e+04,4.49999893e-01,-2.24497789e-12,6.93456013e-01,3.58405929,7.01286573e-01,-1.84509847,1.56434321e-05,5.86341574,-1.44689753,-1,-0.9998650852205633
2.90111201e+04,4.49999890e-01,-2.16059344e-12,6.82509219e-01,3.58414698,6.95637810e-01,-1.84509847,1.53896888e-05,5.86874058,-1.43095233,-1,-0.9998562707865293
3.05733207e+04,4.49999886e-01,-2.07783428e-12,6.71359282e-01,3.58422581,6.89905171e-01,-1.84509847,1.51327775e-05,5.87414718,-1.41476091,-1,-0.9998469983993074
3.22207354e+04,4.49999883e-01,-1.99805494e-12,6.60100406e-01,3.58430812,6.84111107e-01,-1.84509847,1.48810892e-05,5.87961508,-1.39838233,-1,-0.9998372202267645
3.39549659e+04,4.49999880e-01,-1.91945955e-12,6.48622083e-01,3.58436990,6.78248395e-01,-1.84509847,1.46201041e-05,5.88515089,-1.38179727,-1,-0.999826926762066
3.57814321e+04,4.49999876e-01,-1.84364166e-12,6.36956885e-01,3.58441969,6.72316212e-01,-1.84509847,1.43613408e-05,5.89075569,-1.36500743,-1,-0.9998160858355843
3.77056535e+04,4.49999873e-01,-1.76975419e-12,6.25174088e-01,3.58447286,6.66318481e-01,-1.84509847,1.41032351e-05,5.89642590,-1.34802002,-1,-0.9998046646865196
3.97321555e+04,4.49999869e-01,-1.69792803e-12,6.13215408e-01,3.58450738,6.60270106e-01,-1.84509847,1.38413313e-05,5.90214738,-1.33087986,-1,-0.9997926364545179
4.18658184e+04,4.49999866e-01,-1.62803408e-12,6.01104607e-01,3.58453585,6.54157757e-01,-1.84509847,1.35784027e-05,5.90793253,-1.31354643,-1,-0.9997799721727286
4.41138357e+04,4.49999862e-01,-1.56045707e-12,5.88846774e-01,3.58455657,6.47987406e-01,-1.84509847,1.33169609e-05,5.91377569,-1.29603806,-1,-0.9997666291443831
4.64815367e+04,4.49999859e-01,-1.49489197e-12,5.76459717e-01,3.58456489,6.41777235e-01,-1.84509847,1.30529271e-05,5.91965975,-1.27840285,-1,-0.9997525757376069
4.89739372e+04,4.49999855e-01,-1.43155401e-12,5.63951019e-01,3.58457098,6.35510711e-01,-1.84509847,1.27919069e-05,5.92560050,-1.26059468,-1,-0.999737782181294
5.16006680e+04,4.49999851e-01,-1.37059353e-12,5.51294343e-01,3.58456229,6.29199752e-01,-1.84509847,1.25319979e-05,5.93158671,-1.24264981,-1,-0.9997221913121667
5.43657031e+04,4.49999848e-01,-1.31139033e-12,5.38530797e-01,3.58454530,6.22851943e-01,-1.84509847,1.22703549e-05,5.93761132,-1.22459022,-1,-0.9997057795426861
5.72761952e+04,4.49999844e-01,-1.25448669e-12,5.25625366e-01,3.58450803,6.16473768e-01,-1.84509847,1.20093276e-05,5.94366784,-1.20643553,-1,-0.9996885044182511
6.03453311e+04,4.49999840e-01,-1.19978749e-12,5.12645969e-01,3.58446409,6.10071966e-01,-1.84509847,1.17506347e-05,5.94974976,-1.18820063,-1,-0.9996702876690695
6.35760658e+04,4.49999837e-01,-1.14721431e-12,4.99581447e-01,3.58440323,6.03661420e-01,-1.84509847,1.14930193e-05,5.95584335,-1.16992992,-1,-0.9996511117558419
6.69768103e+04,4.49999833e-01,-1.09643933e-12,4.86431618e-01,3.58432727,5.97238417e-01,-1.84509847,1.12337678e-05,5.96195188,-1.15160803,-1,-0.9996309267553709
7.05611860e+04,4.49999829e-01,-1.04805994e-12,4.73250152e-01,3.58424270,5.90816830e-01,-1.84509847,1.09803020e-05,5.96806253,-1.13328035,-1,-0.9996096518183114
7.43396296e+04,4.49999825e-01,-1.00202622e-12,4.60132527e-01,3.58416390,5.84415612e-01,-1.84509847,1.07340533e-05,5.97415727,-1.11499688,-1,-0.9995872249979944
7.83177919e+04,4.49999821e-01,-9.57987028e-13,4.46973166e-01,3.58406386,5.78036015e-01,-1.84509847,1.04895446e-05,5.98023465,-1.09676596,-1,-0.9995636127542932
8.25089858e+04,4.49999817e-01,-9.15917302e-13,4.33868899e-01,3.58394919,5.71713218e-01,-1.84509847,1.02467274e-05,5.98626137,-1.07868707,-1,-0.9995387360689539
8.69286921e+04,4.49999814e-01,-8.76328384e-13,4.20869523e-01,3.58382168,5.65468550e-01,-1.84509847,1.00114971e-05,5.99221645,-1.06081978,-1,-0.9995125030562276
9.15882091e+04,4.49999810e-01,-8.38613035e-13,4.08074808e-01,3.58369480,5.59324964e-01,-1.84509847,9.78069718e-06,5.99807794,-1.04323397,-1,-0.9994848466554485
9.65001816e+04,4.49999806e-01,-8.03410978e-13,3.95468951e-01,3.58354855,5.53314533e-01,-1.84509847,9.55768510e-06,6.00381485,-1.02601807,-1,-0.9994556918138465
1.01681429e+05,4.49999802e-01,-7.70539321e-13,3.83156671e-01,3.58339201,5.47471466e-01,-1.84509847,9.34316204e-06,6.00939446,-1.00927423,-1,-0.9994249387004592
1.07149529e+05,4.49999797e-01,-7.39925228e-13,3.71248547e-01,3.58322974,5.41841937e-01,-1.84509847,9.13665033e-06,6.01477277,-9.93132035e-01,-1,-0.999392482983461
1.12920359e+05,4.49999793e-01,-7.11702445e-13,3.59837477e-01,3.58307139,5.36453108e-01,-1.84509847,8.94234343e-06,6.01992359,-9.77672697e-01,-1,-0.999358230423097
1.19014003e+05,4.49999789e-01,-6.85883728e-13,3.48984620e-01,3.58291049,5.31348485e-01,-1.84509847,8.75966014e-06,6.02480468,-9.63022446e-01,-1,-0.9993220618114856
1.25450144e+05,4.49999785e-01,-6.62511567e-13,3.38807322e-01,3.58275375,5.26573306e-01,-1.84509847,8.59038974e-06,6.02937238,-9.49311892e-01,-1,-0.9992838603208659
1.32245905e+05,4.49999780e-01,-6.41426809e-13,3.29322497e-01,3.58260353,5.22131342e-01,-1.84509847,8.43490127e-06,6.03362268,-9.36554328e-01,-1,-0.9992435243182682
1.39425648e+05,4.49999776e-01,-6.22550772e-13,3.20583582e-01,3.58245927,5.18050410e-01,-1.84509847,8.29229393e-06,6.03752849,-9.24828536e-01,-1,-0.9992009092038906
1.47009864e+05,4.49999771e-01,-6.05826227e-13,3.12558095e-01,3.58232119,5.14313812e-01,-1.84509847,8.16413639e-06,6.04110575,-9.14087966e-01,-1,-0.9991558933541164
1.55010380e+05,4.49999767e-01,-5.90835935e-13,3.05198517e-01,3.58219117,5.10894079e-01,-1.84509847,8.04729197e-06,6.04438039,-9.04255794e-01,-1,-0.9991084065701994
1.63461735e+05,4.49999762e-01,-5.77471240e-13,2.98454570e-01,3.58207158,5.07761270e-01,-1.84509847,7.94191142e-06,6.04738112,-8.95246249e-01,-1,-0.9990582438471086
1.72387557e+05,4.49999757e-01,-5.65407579e-13,2.92175671e-01,3.58195584,5.04853299e-01,-1.84509847,7.84619339e-06,6.05016700,-8.86881668e-01,-1,-0.9990052649416736
1.81804594e+05,4.49999751e-01,-5.54281101e-13,2.86216545e-01,3.58184212,5.02101177e-01,-1.84509847,7.75694254e-06,6.05280420,-8.78962179e-01,-1,-0.9989493704467238
1.91722523e+05,4.49999746e-01,-5.43739944e-13,2.80472944e-01,3.58174077,4.99432089e-01,-1.84509847,7.67327751e-06,6.05536228,-8.71279743e-01,-1,-0.9988905029247631
2.02202301e+05,4.49999740e-01,-5.33635724e-13,2.74726105e-01,3.58163133,4.96777547e-01,-1.84509847,7.59226110e-06,6.05790714,-8.63637815e-01,-1,-0.998828300567642
2.13255983e+05,4.49999735e-01,-5.23545256e-13,2.68826674e-01,3.58151517,4.94060145e-01,-1.84509847,7.51068444e-06,6.06051261,-8.55814211e-01,-1,-0.9987626918233284
2.24883733e+05,4.49999729e-01,-5.13192701e-13,2.62668684e-01,3.58139468,4.91222135e-01,-1.84509847,7.42638655e-06,6.06323420,-8.47640760e-01,-1,-0.9986936757184057
2.37124629e+05,4.49999722e-01,-5.02349775e-13,2.56061979e-01,3.58126094,4.88186272e-01,-1.84509847,7.33702229e-06,6.06614613,-8.38896221e-01,-1,-0.998621020306767
2.50055743e+05,4.49999716e-01,-4.90627478e-13,2.48792117e-01,3.58111076,4.84851692e-01,-1.84509847,7.23857212e-06,6.06934516,-8.29288330e-01,-1,-0.9985442681302419
2.63642458e+05,4.49999710e-01,-4.77803265e-13,2.40742889e-01,3.58094398,4.81160642e-01,-1.84509847,7.12912094e-06,6.07288701,-8.18651170e-01,-1,-0.9984636246568275
2.77934891e+05,4.49999703e-01,-4.63600220e-13,2.31643936e-01,3.58074900,4.77001122e-01,-1.84509847,7.00476336e-06,6.07687922,-8.06662087e-01,-1,-0.9983787924188169
2.92930769e+05,4.49999696e-01,-4.47972686e-13,2.21289842e-01,3.58052098,4.72280120e-01,-1.84509847,6.86538569e-06,6.08141121,-7.93047115e-01,-1,-0.9982897849075224
3.08677667e+05,4.49999689e-01,-4.30349706e-13,2.09307097e-01,3.58024510,4.66840498e-01,-1.84509847,6.70324713e-06,6.08663481,-7.77354425e-01,-1,-0.9981963197431893
3.25164364e+05,4.49999682e-01,-4.10775999e-13,1.95426449e-01,3.57992119,4.60547988e-01,-1.84509847,6.51936244e-06,6.09267988,-7.59190504e-01,-1,-0.9980984635276722
3.42349254e+05,4.49999676e-01,-3.89318853e-13,1.79439013e-01,3.57954036,4.53315937e-01,-1.84509847,6.31316310e-06,6.09963094,-7.38303962e-01,-1,-0.9979964632119341
3.60238100e+05,4.49999669e-01,-3.66014360e-13,1.61098619e-01,3.57909275,4.45040964e-01,-1.84509847,6.08276503e-06,6.10758857,-7.14393809e-01,-1,-0.9978902845898894
3.78811831e+05,4.49999662e-01,-3.41518624e-13,1.40568671e-01,3.57857315,4.35815188e-01,-1.84509847,5.83249161e-06,6.11646512,-6.87719336e-01,-1,-0.997780040856794
3.98124205e+05,4.49999656e-01,-3.16987909e-13,1.18328597e-01,3.57799010,4.25861248e-01,-1.84509847,5.57404269e-06,6.12604795,-6.58918894e-01,-1,-0.9976654129339122
4.18296878e+05,4.49999650e-01,-2.93396370e-13,9.52409782e-02,3.57736269,4.15572270e-01,-1.84509847,5.31671666e-06,6.13595919,-6.29127449e-01,-1,-0.9975456787362955
4.39488673e+05,4.49999644e-01,-2.71576711e-13,7.21499498e-02,3.57673131,4.05289506e-01,-1.84509847,5.07209195e-06,6.14587097,-5.99326006e-01,-1,-0.997419895575562
4.61812255e+05,4.49999638e-01,-2.51789444e-13,4.93872064e-02,3.57609147,3.95187824e-01,-1.84509847,4.84364095e-06,6.15561797,-5.70019499e-01,-1,-0.9972873947325304
4.85342896e+05,4.49999633e-01,-2.33784934e-13,2.70948943e-02,3.57546460,3.85295403e-01,-1.84509847,4.62927134e-06,6.16532076,-5.41039005e-01,-1,-0.9971477294328678
5.10153187e+05,4.49999627e-01,-2.17456897e-13,5.24887562e-03,3.57482918,3.75643221e-01,-1.84509847,4.42839030e-06,6.17464090,-5.13018095e-01,-1,-0.9970004688152232
5.36305151e+05,4.49999622e-01,-2.02477814e-13,-1.62045462e-02,3.57419984,3.66175202e-01,-1.84509847,4.23803170e-06,6.18378798,-4.85514868e-01,-1,-0.9968452447442415
5.63862509e+05,4.49999616e-01,-1.88819534e-13,-3.73038391e-02,3.57357363,3.56877966e-01,-1.84509847,4.05896975e-06,6.19277417,-4.58492268e-01,-1,-0.9966816790061479
5.92907450e+05,4.49999611e-01,-1.76267937e-13,-5.80179087e-02,3.57296678,3.47734638e-01,-1.84509847,3.88966341e-06,6.20161610,-4.31898010e-01,-1,-0.9965092837709969
6.23505226e+05,4.49999606e-01,-1.64710583e-13,-7.84386816e-02,3.57236037,3.38737076e-01,-1.84509847,3.72828172e-06,6.21032184,-4.05707657e-01,-1,-0.9963276717378164
6.55748710e+05,4.49999601e-01,-1.54083194e-13,-9.85263338e-02,3.57177185,3.29870293e-01,-1.84509847,3.57528490e-06,6.21890576,-3.79881534e-01,-1,-0.9961362916621513
6.89716799e+05,4.49999596e-01,-1.44250109e-13,-1.18350698e-01,3.57118702,3.21127763e-01,-1.84509847,3.42854768e-06,6.22737323,-3.54408869e-01,-1,-0.9959346752536076
7.25510021e+05,4.49999591e-01,-1.35203047e-13,-1.37882432e-01,3.57061899,3.12497956e-01,-1.84509847,3.28936587e-06,6.23573466,-3.29257130e-01,-1,-0.9957222258317443
7.63207118e+05,4.49999586e-01,-1.26804200e-13,-1.57183151e-01,3.57005536,3.03974847e-01,-1.84509847,3.15544208e-06,6.24399638,-3.04404727e-01,-1,-0.9954984760261646
8.02935413e+05,4.49999581e-01,-1.19039071e-13,-1.76193013e-01,3.56951691,2.95546825e-01,-1.84509847,3.02771444e-06,6.25216867,-2.79820183e-01,-1,-0.9952626701156387
8.44780525e+05,4.49999576e-01,-1.11831515e-13,-1.94971637e-01,3.56899106,2.87209222e-01,-1.84509847,2.90526010e-06,6.26025662,-2.55484637e-01,-1,-0.995014299911576
8.88871045e+05,4.49999572e-01,-1.05126576e-13,-2.13524114e-01,3.56848049,2.78954114e-01,-1.84509847,2.78747292e-06,6.26826765,-2.31376247e-01,-1,-0.9947526021665769
9.35308413e+05,4.49999567e-01,-9.88935279e-14,-2.31874318e-01,3.56798251,2.70774980e-01,-1.84509847,2.67441793e-06,6.27620801,-2.07476707e-01,-1,-0.9944769747870565
9.84228376e+05,4.49999562e-01,-9.30899514e-14,-2.50024876e-01,3.56749900,2.62666721e-01,-1.84509847,2.56587104e-06,6.28408206,-1.83776110e-01,-1,-0.9941866120514269
1.03576094e+06,4.49999558e-01,-8.76770334e-14,-2.67963770e-01,3.56703619,2.54622888e-01,-1.84509847,2.46200025e-06,6.29189574,-1.60256283e-01,-1,-0.9938807423136052
1.09003693e+06,4.49999553e-01,-8.26093288e-14,-2.85743821e-01,3.56658264,2.46639964e-01,-1.84509847,2.36162319e-06,6.29965230,-1.36905814e-01,-1,-0.9935585890663632
1.14722204e+06,4.49999549e-01,-7.79003974e-14,-3.03362204e-01,3.56614100,2.38714054e-01,-1.84509847,2.26590586e-06,6.30735615,-1.13712607e-01,-1,-0.9932191688387377
1.20743048e+06,4.49999544e-01,-7.34781604e-14,-3.20821892e-01,3.56571341,2.30839389e-01,-1.84509847,2.17362901e-06,6.31501272,-9.06605464e-02,-1,-0.992861803741254
1.27088784e+06,4.49999540e-01,-6.93484106e-14,-3.38107466e-01,3.56530549,2.23012440e-01,-1.84509847,2.08576051e-06,6.32262483,-6.77405345e-02,-1,-0.9924851547923281
1.33768635e+06,4.49999535e-01,-6.54742605e-14,-3.55265460e-01,3.56490731,2.15229805e-01,-1.84509847,2.00134380e-06,6.33019619,-4.49382293e-02,-1,-0.9920886745640093
1.40808038e+06,4.49999531e-01,-6.18362519e-14,-3.72294334e-01,3.56452057,2.07488845e-01,-1.84509847,1.92025070e-06,6.33772966,-2.22471728e-02,-1,-0.9916708532520266
1.48218953e+06,4.49999526e-01,-5.84293809e-14,-3.89204616e-01,3.56414470,1.99785439e-01,-1.84509847,1.84283022e-06,6.34522889,3.39898649e-04,-1,-0.9912309809747482
1.56026321e+06,4.49999522e-01,-5.52274608e-14,-4.06009340e-01,3.56377727,1.92117935e-01,-1.84509847,1.76866491e-06,6.35269439,2.28290898e-02,-1,-0.99076757736781
1.64248515e+06,4.49999518e-01,-5.22126898e-14,-4.22698307e-01,3.56342239,1.84483228e-01,-1.84509847,1.69992186e-06,6.36012914,4.52278111e-02,-1,-0.9902795519081999
1.72906979e+06,4.49999513e-01,-4.93840210e-14,-4.39282929e-01,3.56307851,1.76878672e-01,-1.84509847,1.63516955e-06,6.36753600,6.75457307e-02,-1,-0.9897656317947707
1.82030025e+06,4.49999509e-01,-4.67207025e-14,-4.55770624e-01,3.56274503,1.69301778e-01,-1.84509847,1.57331668e-06,6.37491794,8.97892125e-02,-1,-0.9892241365786284
1.91632384e+06,4.49999504e-01,-4.42100937e-14,-4.72177364e-01,3.56241901,1.61750447e-01,-1.84509847,1.51414855e-06,6.38227680,1.11966174e-01,-1,-0.9886541919064015
2.01752120e+06,4.49999500e-01,-4.18347095e-14,-4.88488623e-01,3.56210515,1.54222545e-01,-1.84509847,1.45742907e-06,6.38961394,1.34084059e-01,-1,-0.9880535385026344
2.12404368e+06,4.49999496e-01,-3.96166502e-14,-5.04731820e-01,3.56179725,1.46716743e-01,-1.84509847,1.40397746e-06,6.39693097,1.56141472e-01,-1,-0.9874212780346766
2.23626106e+06,4.49999492e-01,-3.75167715e-14,-5.20892296e-01,3.56149974,1.39231531e-01,-1.84509847,1.35278858e-06,6.40422927,1.78145475e-01,-1,-0.9867552156862239
2.35445420e+06,4.49999487e-01,-3.55347077e-14,-5.36986391e-01,3.56120936,1.31765240e-01,-1.84509847,1.30388177e-06,6.41151056,2.00097897e-01,-1,-0.9860536844225337
2.47891656e+06,4.49999483e-01,-3.36632844e-14,-5.53012556e-01,3.56092735,1.24316178e-01,-1.84509847,1.25729010e-06,6.41877642,2.22006695e-01,-1,-0.9853149424220026
2.60998431e+06,4.49999479e-01,-3.18913469e-14,-5.68976153e-01,3.56065288,1.16883310e-01,-1.84509847,1.21263849e-06,6.42602732,2.43875082e-01,-1,-0.9845369943593102
