star_age,star_mass,star_mdot,log_L,log_Teff,log_R,log_surf_z,v_wind_Km_per_s,log_center_T,log_center_Rho,phase,x
2.26894943e+03,7.99999945e-01,-2.10761021e-11,1.53900443,3.60648996,1.07919944,-1.84509945,4.20046866e-05,5.73937387,-2.30866633,-1,-1.0
2.39230233e+03,7.99999943e-01,-2.07543001e-11,1.53484740,3.60671091,1.07667903,-1.84509944,4.18926255e-05,5.74173739,-2.30160498,-1,-0.9999981547540296
2.52244683e+03,7.99999940e-01,-2.04244418e-11,1.53053300,3.60694075,1.07406214,-1.84509942,4.17747492e-05,5.74419170,-2.29427195,-1,-0.9999962079119677
2.65969349e+03,7.99999937e-01,-2.00878591e-11,1.52604321,3.60717571,1.07134733,-1.84509940,4.16501215e-05,5.74673891,-2.28665923,-1,-0.999994154828122
2.80435985e+03,7.99999935e-01,-1.97449381e-11,1.52148069,3.60744220,1.06853310,-1.84509938,4.15320355e-05,5.74937955,-2.27876912,-1,-0.9999919907523862
2.95671967e+03,7.99999932e-01,-1.94014464e-11,1.51685688,3.60774369,1.06561822,-1.84509935,4.14329214e-05,5.75211513,-2.27059310,-1,-0.9999897115895624
3.11703841e+03,7.99999929e-01,-1.90501384e-11,1.51186346,3.60800209,1.06260471,-1.84509933,4.13011173e-05,5.75494430,-2.26213654,-1,-0.9999873133686129
3.28564995e+03,7.99999925e-01,-1.86910225e-11,1.50671060,3.60827041,1.05949162,-1.84509929,4.11596205e-05,5.75786780,-2.25339963,-1,-0.999984791095
3.46449483e+03,7.99999922e-01,-1.83272630e-11,1.50135744,3.60854747,1.05626094,-1.84509926,4.10141288e-05,5.76090252,-2.24432615,-1,-0.9999821157400296
3.65237669e+03,7.99999919e-01,-1.79607932e-11,1.49582407,3.60882924,1.05293072,-1.84509922,4.08660676e-05,5.76403188,-2.23497200,-1,-0.9999793052001472
3.84992069e+03,7.99999915e-01,-1.75880153e-11,1.49011707,3.60911875,1.04949818,-1.84509918,4.07073930e-05,5.76725855,-2.22532683,-1,-0.9999763501235339
4.05914377e+03,7.99999912e-01,-1.72102499e-11,1.48429401,3.60943885,1.04594646,-1.84509914,4.05501861e-05,5.77059854,-2.21534073,-1,-0.999973220338622
4.27854116e+03,7.99999908e-01,-1.68342195e-11,1.47832031,3.60977132,1.04229466,-1.84509909,4.04012440e-05,5.77403382,-2.20507045,-1,-0.999969938355387
4.51078984e+03,7.99999904e-01,-1.64479008e-11,1.47207876,3.61009672,1.03852309,-1.84509905,4.02213053e-05,5.77758315,-2.19445596,-1,-0.9999664641286692
4.75445810e+03,7.99999900e-01,-1.60654321e-11,1.46566782,3.61043064,1.03464978,-1.84509901,4.00512202e-05,5.78122990,-2.18355222,-1,-0.9999628190755342
5.01226411e+03,7.99999896e-01,-1.56773779e-11,1.45899607,3.61075873,1.03065772,-1.84509896,3.98595750e-05,5.78498989,-2.17230649,-1,-0.9999589625346577
5.28340539e+03,7.99999892e-01,-1.52889790e-11,1.45234526,3.61114663,1.02655652,-1.84509892,3.96858404e-05,5.78885365,-2.16075067,-1,-0.9999549065104028
5.56857282e+03,7.99999888e-01,-1.49025392e-11,1.44537017,3.61150732,1.02234760,-1.84509888,3.94988584e-05,5.79282051,-2.14888576,-1,-0.9999506406678399
5.87008890e+03,7.99999883e-01,-1.45132070e-11,1.43819811,3.61187802,1.01802016,-1.84509883,3.92992921e-05,5.79690083,-2.13668022,-1,-0.9999461302645043
6.18738152e+03,7.99999879e-01,-1.41241136e-11,1.43078434,3.61224222,1.01358489,-1.84509879,3.90877652e-05,5.80108442,-2.12416477,-1,-0.9999413838586357
6.52147046e+03,7.99999874e-01,-1.37342618e-11,1.42316743,3.61260971,1.00904145,-1.84509875,3.88639733e-05,5.80537170,-2.11133681,-1,-0.9999363861952628
6.87337364e+03,7.99999869e-01,-1.33451787e-11,1.41535067,3.61298172,1.00438904,-1.84509872,3.86308043e-05,5.80976395,-2.09819452,-1,-0.9999311220472384
7.24421549e+03,7.99999865e-01,-1.29606731e-11,1.40758185,3.61342152,9.99625029e-01,-1.84509868,3.84226821e-05,5.81426309,-2.08473223,-1,-0.9999255745941235
7.63484094e+03,7.99999860e-01,-1.25795797e-11,1.39937453,3.61380533,9.94753747e-01,-1.84509865,3.81869385e-05,5.81886586,-2.07095795,-1,-0.9999197311965421
8.04637960e+03,7.99999855e-01,-1.22001181e-11,1.39095739,3.61419767,9.89760498e-01,-1.84509862,3.79445871e-05,5.82349950,-2.05698479,-1,-0.9999135749565672
8.47994464e+03,7.99999849e-01,-1.18217826e-11,1.38238129,3.61459475,9.84678295e-01,-1.84509860,3.76858266e-05,5.82830593,-2.04259851,-1,-0.9999070892221991
8.93662353e+03,7.99999844e-01,-1.14477460e-11,1.37359716,3.61499938,9.79476970e-01,-1.84509857,3.74252332e-05,5.83321577,-2.02788887,-1,-0.9999002577258863
9.41760406e+03,7.99999839e-01,-1.10748806e-11,1.36467217,3.61541210,9.74189038e-01,-1.84509855,3.71458448e-05,5.83822210,-2.01290369,-1,-0.9998930626993828
9.92407756e+03,7.99999833e-01,-1.07139673e-11,1.35559830,3.61584494,9.68786422e-01,-1.84509853,3.68920214e-05,5.84333319,-1.99759702,-1,-0.9998854863214869
1.04571738e+04,7.99999828e-01,-1.03560587e-11,1.34634117,3.61628137,9.63284994e-01,-1.84509852,3.66253267e-05,5.84854752,-1.98199045,-1,-0.9998775116918782
1.10197964e+04,7.99999822e-01,-1.00060102e-11,1.33702865,3.61675470,9.57682074e-01,-1.84509851,3.63710407e-05,5.85385635,-1.96609355,-1,-0.9998690953750712
1.16117272e+04,7.99999816e-01,-9.65948358e-12,1.32734153,3.61717875,9.51990420e-01,-1.84509850,3.60843128e-05,5.85925274,-1.94993460,-1,-0.9998602406345387
1.22344226e+04,7.99999810e-01,-9.31861682e-12,1.31747951,3.61760398,9.46208944e-01,-1.84509850,3.57896140e-05,5.86473876,-1.93350577,-1,-0.9998509256838761
1.28913088e+04,7.99999804e-01,-8.98257683e-12,1.30745215,3.61803581,9.40331604e-01,-1.84509849,3.54833163e-05,5.87031668,-1.91679524,-1,-0.9998410992702813
1.35823352e+04,7.99999798e-01,-8.65375149e-12,1.29724112,3.61846467,9.34368362e-01,-1.84509849,3.51719612e-05,5.87597978,-1.89982994,-1,-0.9998307621506839
1.43106818e+04,7.99999792e-01,-8.33636724e-12,1.28711341,3.61895519,9.28323468e-01,-1.84509848,3.48907821e-05,5.88172381,-1.88262162,-1,-0.9998198667552075
1.50771498e+04,7.99999786e-01,-8.02463576e-12,1.27660951,3.61939661,9.22188691e-01,-1.84509848,3.45836186e-05,5.88755670,-1.86514731,-1,-0.9998084010986369
1.58844673e+04,7.99999780e-01,-7.71854840e-12,1.26590447,3.61982613,9.15977131e-01,-1.84509848,3.42591771e-05,5.89346585,-1.84744585,-1,-0.9997963243711043
1.67341961e+04,7.99999773e-01,-7.41854051e-12,1.25518425,3.62028972,9.09689835e-01,-1.84509848,3.39334469e-05,5.89945023,-1.82951621,-1,-0.9997836132095177
1.76299692e+04,7.99999767e-01,-7.13201732e-12,1.24429870,3.62074762,9.03331266e-01,-1.84509848,3.36265064e-05,5.90550593,-1.81137219,-1,-0.9997702132675373
1.85719618e+04,7.99999760e-01,-6.84995135e-12,1.23315483,3.62118085,8.96892878e-01,-1.84509848,3.32948079e-05,5.91164036,-1.79298878,-1,-0.9997561219243324
1.95644467e+04,7.99999754e-01,-6.57349410e-12,1.22197014,3.62164208,8.90378069e-01,-1.84509848,3.29567434e-05,5.91785053,-1.77437696,-1,-0.9997412752627433
2.06098069e+04,7.99999747e-01,-6.31003091e-12,1.21059666,3.62209036,8.83794756e-01,-1.84509847,3.26368478e-05,5.92412905,-1.75555499,-1,-0.9997256376352809
2.17098162e+04,7.99999740e-01,-6.05083604e-12,1.19905428,3.62252274,8.77158805e-01,-1.84509847,3.22898124e-05,5.93046097,-1.73656996,-1,-0.9997091825075283
2.28674601e+04,7.99999733e-01,-5.80047298e-12,1.18735476,3.62294848,8.70457564e-01,-1.84509847,3.19440843e-05,5.93685872,-1.71738887,-1,-0.9996918652191503
2.40874857e+04,7.99999727e-01,-5.55508349e-12,1.17564847,3.62340321,8.63694972e-01,-1.84509847,3.15869709e-05,5.94331799,-1.69802450,-1,-0.9996736147578957
2.53721264e+04,7.99999720e-01,-5.32422770e-12,1.16375643,3.62383850,8.56878377e-01,-1.84509847,3.12601284e-05,5.94983191,-1.67849265,-1,-0.9996543977141538
2.67241597e+04,7.99999713e-01,-5.09742258e-12,1.15165720,3.62424416,8.50017439e-01,-1.84509847,3.09013998e-05,5.95639120,-1.65882326,-1,-0.9996341725390782
2.81477478e+04,7.99999706e-01,-4.87849402e-12,1.13953562,3.62467368,8.43097597e-01,-1.84509847,3.05501605e-05,5.96301014,-1.63896945,-1,-0.9996128769699838
2.96465211e+04,7.99999699e-01,-4.66775541e-12,1.12732881,3.62510592,8.36129718e-01,-1.84509847,3.02024257e-05,5.96967858,-1.61896588,-1,-0.9995904566994246
3.12241822e+04,7.99999691e-01,-4.46401722e-12,1.11494867,3.62551321,8.29125070e-01,-1.84509847,2.98430494e-05,5.97638579,-1.59884564,-1,-0.9995668563399087
3.28860343e+04,7.99999684e-01,-4.26961837e-12,1.10265491,3.62595741,8.22089779e-01,-1.84509847,2.95049411e-05,5.98312495,-1.57862778,-1,-0.9995419965604401
3.46349895e+04,7.99999677e-01,-4.08090598e-12,1.09010326,3.62635356,8.15021669e-01,-1.84509847,2.91429783e-05,5.98989932,-1.55829955,-1,-0.9995158337986801
3.64770544e+04,7.99999670e-01,-3.90047057e-12,1.07758204,3.62677169,8.07924797e-01,-1.84509847,2.87944124e-05,5.99670449,-1.53788049,-1,-0.9994882782014156
3.84163408e+04,7.99999662e-01,-3.72674853e-12,1.06490987,3.62716006,8.00811976e-01,-1.84509847,2.84351941e-05,6.00352859,-1.51740542,-1,-0.9994592682598988
4.04581571e+04,7.99999655e-01,-3.56007013e-12,1.05214619,3.62752849,7.93693268e-01,-1.84509847,2.80713592e-05,6.01036163,-1.49690182,-1,-0.9994287245653466
4.26097556e+04,7.99999648e-01,-3.40080577e-12,1.03958141,3.62794341,7.86581038e-01,-1.84509847,2.77225067e-05,6.01719186,-1.47639943,-1,-0.9993965386300188
4.48748041e+04,7.99999640e-01,-3.24977142e-12,1.02683913,3.62830877,7.79479176e-01,-1.84509847,2.73746705e-05,6.02401554,-1.45591838,-1,-0.9993626555869997
4.72598206e+04,7.99999633e-01,-3.10519203e-12,1.01403599,3.62864123,7.72412680e-01,-1.84509847,2.70175462e-05,6.03080834,-1.43552635,-1,-0.9993269779330021
4.97739065e+04,7.99999625e-01,-2.96817514e-12,1.00153108,3.62902748,7.65387724e-01,-1.84509847,2.66833358e-05,6.03756396,-1.41524527,-1,-0.99928936951945
5.24224764e+04,7.99999617e-01,-2.83810636e-12,9.89007973e-01,3.62936517,7.58450797e-01,-1.84509847,2.63410009e-05,6.04423838,-1.39520505,-1,-0.9992497493489059
5.52139808e+04,7.99999610e-01,-2.71489254e-12,9.76633512e-01,3.62968205,7.51629809e-01,-1.84509847,2.59969004e-05,6.05080440,-1.37549466,-1,-0.9992079910096592
5.81566926e+04,7.99999602e-01,-2.59961297e-12,9.64451291e-01,3.62997767,7.44947461e-01,-1.84509847,2.56633464e-05,6.05723995,-1.35617451,-1,-0.9991639707467322
6.12613521e+04,7.99999594e-01,-2.49256744e-12,9.52755738e-01,3.63030455,7.38445917e-01,-1.84509847,2.53559718e-05,6.06350402,-1.33736866,-1,-0.999117527895112
6.45345269e+04,7.99999586e-01,-2.39274554e-12,9.41314462e-01,3.63057986,7.32174670e-01,-1.84509847,2.50466808e-05,6.06954848,-1.31922071,-1,-0.9990685642095408
6.79857020e+04,7.99999578e-01,-2.30056905e-12,9.30342201e-01,3.63083283,7.26182588e-01,-1.84509847,2.47472490e-05,6.07532598,-1.30187347,-1,-0.9990169378031394
7.16345059e+04,7.99999570e-01,-2.21666541e-12,9.19963179e-01,3.63107154,7.20515666e-01,-1.84509847,2.44664273e-05,6.08079184,-1.28546172,-1,-0.9989623550515948
7.54789913e+04,7.99999562e-01,-2.14037903e-12,9.10164154e-01,3.63128203,7.15195169e-01,-1.84509847,2.42003564e-05,6.08592564,-1.27004497,-1,-0.9989048450847245
7.95464504e+04,7.99999553e-01,-2.07218698e-12,9.01073411e-01,3.63146690,7.10280063e-01,-1.84509847,2.39536627e-05,6.09066994,-1.25579874,-1,-0.9988439996363098
8.38376636e+04,7.99999544e-01,-2.01067234e-12,8.92665315e-01,3.63163395,7.05741919e-01,-1.84509847,2.37218717e-05,6.09505210,-1.24264084,-1,-0.9987798070322839
8.83689756e+04,7.99999535e-01,-1.95654813e-12,8.85131087e-01,3.63183169,7.01579314e-01,-1.84509847,2.35289396e-05,6.09907294,-1.23056589,-1,-0.9987120227709628
9.31495263e+04,7.99999526e-01,-1.90794080e-12,8.77999777e-01,3.63196353,6.97749973e-01,-1.84509847,2.33412361e-05,6.10277313,-1.21945481,-1,-0.9986405101278458
9.81875944e+04,7.99999517e-01,-1.86384131e-12,8.71366926e-01,3.63208911,6.94182396e-01,-1.84509847,2.31698034e-05,6.10622138,-1.20910143,-1,-0.9985651452611926
1.03515074e+05,7.99999507e-01,-1.82329713e-12,8.65133400e-01,3.63220747,6.90828906e-01,-1.84509847,2.30089914e-05,6.10946345,-1.19936586,-1,-0.9984854510645914
1.09127079e+05,7.99999497e-01,-1.78521094e-12,8.59075344e-01,3.63231760,6.87579622e-01,-1.84509847,2.28581284e-05,6.11260555,-1.18993224,-1,-0.9984015006296058
1.15042849e+05,7.99999487e-01,-1.74845446e-12,8.53049482e-01,3.63242598,6.84349934e-01,-1.84509847,2.27130494e-05,6.11572913,-1.18055400,-1,-0.9983130061495091
1.21275495e+05,7.99999476e-01,-1.71175316e-12,8.46870074e-01,3.63253469,6.81042800e-01,-1.84509847,2.25669318e-05,6.11892812,-1.17094878,-1,-0.998219771495796
1.27847595e+05,7.99999465e-01,-1.67397734e-12,8.40329968e-01,3.63264069,6.77560753e-01,-1.84509847,2.24126871e-05,6.12229696,-1.16083423,-1,-0.9981214589223453
1.34757378e+05,7.99999454e-01,-1.63389518e-12,8.33313071e-01,3.63276070,6.73812297e-01,-1.84509847,2.22445129e-05,6.12592409,-1.14994428,-1,-0.9980180949216884
1.42037253e+05,7.99999442e-01,-1.59136602e-12,8.25717814e-01,3.63293090,6.69674252e-01,-1.84509847,2.20759031e-05,6.12992877,-1.13791935,-1,-0.9979091946849832
1.49693992e+05,7.99999430e-01,-1.54401856e-12,8.16977657e-01,3.63306729,6.65031396e-01,-1.84509847,2.18639263e-05,6.13442312,-1.12442502,-1,-0.997794656909336
1.57729648e+05,7.99999418e-01,-1.49140987e-12,8.07035589e-01,3.63321377,6.59767401e-01,-1.84509847,2.16156203e-05,6.13952023,-1.10911912,-1,-0.9976744508837543
1.66153727e+05,7.99999406e-01,-1.43273932e-12,7.95589273e-01,3.63337050,6.53730797e-01,-1.84509847,2.13243923e-05,6.14536757,-1.09156104,-1,-0.9975484344072182
1.74976518e+05,7.99999394e-01,-1.36738361e-12,7.82514447e-01,3.63358475,6.46764876e-01,-1.84509847,2.09910305e-05,6.15211794,-1.07128791,-1,-0.9974164535657476
1.84181755e+05,7.99999381e-01,-1.29608216e-12,7.67281144e-01,3.63378009,6.38757543e-01,-1.84509847,2.06075006e-05,6.15988100,-1.04797316,-1,-0.9972787516837472
1.93769329e+05,7.99999369e-01,-1.21923776e-12,7.50042598e-01,3.63400184,6.29694773e-01,-1.84509847,2.01721112e-05,6.16867119,-1.02157345,-1,-0.9971353303917568
2.03747751e+05,7.99999358e-01,-1.13974860e-12,7.30854504e-01,3.63420353,6.19697346e-01,-1.84509847,1.96944656e-05,6.17837296,-9.92443197e-01,-1,-0.9969860623730415
2.14160122e+05,7.99999346e-01,-1.06074411e-12,7.10448866e-01,3.63439128,6.09119026e-01,-1.84509847,1.91871997e-05,6.18864470,-9.61603986e-01,-1,-0.9968303028762696
2.25070513e+05,7.99999335e-01,-9.85800984e-13,6.89579617e-01,3.63455322,5.98360511e-01,-1.84509847,1.86761632e-05,6.19909807,-9.30213880e-01,-1,-0.9966670934581895
2.36552937e+05,7.99999324e-01,-9.17227944e-13,6.68912411e-01,3.63472108,5.87691192e-01,-1.84509847,1.81941497e-05,6.20946981,-8.99060272e-01,-1,-0.9964953269523704
2.48630731e+05,7.99999314e-01,-8.53978503e-13,6.48343116e-01,3.63481797,5.77212760e-01,-1.84509847,1.77108401e-05,6.21968309,-8.68401029e-01,-1,-0.9963146542587491
2.61361925e+05,7.99999303e-01,-7.96191822e-13,6.28195114e-01,3.63491685,5.66941011e-01,-1.84509847,1.72491822e-05,6.22976999,-8.38222763e-01,-1,-0.9961242073018797
2.74771216e+05,7.99999293e-01,-7.43179955e-13,6.08316147e-01,3.63498690,5.56861424e-01,-1.84509847,1.68010528e-05,6.23958407,-8.08752168e-01,-1,-0.9959236166373492
2.88875603e+05,7.99999283e-01,-6.94002106e-13,5.88513185e-01,3.63498710,5.46959545e-01,-1.84509847,1.63489341e-05,6.24922945,-7.79788792e-01,-1,-0.9957126279757469
3.03747073e+05,7.99999273e-01,-6.49093440e-13,5.69160758e-01,3.63502558,5.37206361e-01,-1.84509847,1.59292198e-05,6.25873292,-7.51246947e-01,-1,-0.9954901644577394
3.19396343e+05,7.99999264e-01,-6.07368215e-13,5.49875903e-01,3.63500432,5.27606460e-01,-1.84509847,1.55081583e-05,6.26809110,-7.23140742e-01,-1,-0.9952560657668603
3.35867352e+05,7.99999254e-01,-5.68630867e-13,5.30738312e-01,3.63494943,5.18147450e-01,-1.84509847,1.50922856e-05,6.27731681,-6.95436475e-01,-1,-0.9950096746160682
3.53206429e+05,7.99999244e-01,-5.32810670e-13,5.11767668e-01,3.63487017,5.08820645e-01,-1.84509847,1.46877681e-05,6.28641778,-6.68107730e-01,-1,-0.9947502979661188
3.71457855e+05,7.99999235e-01,-4.99567713e-13,4.92946233e-01,3.63476515,4.99619974e-01,-1.84509847,1.42916223e-05,6.29539864,-6.41135536e-01,-1,-0.9944772734139654
3.90678372e+05,7.99999226e-01,-4.68639334e-13,4.74359822e-01,3.63466245,4.90532156e-01,-1.84509847,1.39063761e-05,6.30427200,-6.14483222e-01,-1,-0.994189752151458
4.10901886e+05,7.99999217e-01,-4.39978348e-13,4.55825016e-01,3.63451565,4.81558359e-01,-1.84509847,1.35293157e-05,6.31303686,-5.88157791e-01,-1,-0.9938872269760104
4.32179461e+05,7.99999208e-01,-4.12989500e-13,4.37340972e-01,3.63432726,4.72693109e-01,-1.84509847,1.31476733e-05,6.32169935,-5.62140067e-01,-1,-0.9935689340171323
4.54584104e+05,7.99999199e-01,-3.88116778e-13,4.19071915e-01,3.63414467,4.63923761e-01,-1.84509847,1.27869435e-05,6.33027141,-5.36391376e-01,-1,-0.993233781157228
4.78166657e+05,7.99999190e-01,-3.64888915e-13,4.00825618e-01,3.63391815,4.55253663e-01,-1.84509847,1.24291312e-05,6.33874954,-5.10925972e-01,-1,-0.992881007846723
5.02987564e+05,7.99999181e-01,-3.43091191e-13,3.82693694e-01,3.63367548,4.46673049e-01,-1.84509847,1.20753069e-05,6.34714264,-4.85716773e-01,-1,-0.9925097098989508
5.29106492e+05,7.99999173e-01,-3.22769035e-13,3.64652002e-01,3.63341234,4.38178468e-01,-1.84509847,1.17303116e-05,6.35545399,-4.60751214e-01,-1,-0.9921189947504508
5.56582668e+05,7.99999164e-01,-3.03788859e-13,3.46662457e-01,3.63312043,4.29767519e-01,-1.84509847,1.13922474e-05,6.36368604,-4.36026895e-01,-1,-0.9917079764197578
5.85518644e+05,7.99999156e-01,-2.85973365e-13,3.28744893e-01,3.63280630,4.21436991e-01,-1.84509847,1.10580859e-05,6.37184124,-4.11531305e-01,-1,-0.9912751208232405
6.15961065e+05,7.99999147e-01,-2.69324770e-13,3.10888664e-01,3.63246959,4.13182312e-01,-1.84509847,1.07318663e-05,6.37992464,-3.87250411e-01,-1,-0.9908197301945856
6.47986860e+05,7.99999139e-01,-2.53690456e-13,2.93084774e-01,3.63210939,4.05000761e-01,-1.84509847,1.04105846e-05,6.38793844,-3.63176564e-01,-1,-0.9903406537466833
6.81711456e+05,7.99999131e-01,-2.39038896e-13,2.75340913e-01,3.63172882,3.96889978e-01,-1.84509847,1.00956490e-05,6.39588534,-3.39304605e-01,-1,-0.9898361647977403
7.17163886e+05,7.99999123e-01,-2.25231553e-13,2.57591468e-01,3.63131232,3.88848254e-01,-1.84509847,9.78302040e-06,6.40376703,-3.15628965e-01,-1,-0.9893058290407699
7.54515198e+05,7.99999115e-01,-2.12331984e-13,2.39953435e-01,3.63089183,3.80870211e-01,-1.84509847,9.48089159e-06,6.41158758,-2.92133012e-01,-1,-0.988747087754958
7.93785562e+05,7.99999107e-01,-2.00248125e-13,2.22324008e-01,3.63044157,3.72956018e-01,-1.84509847,9.18571046e-06,6.41934804,-2.68818206e-01,-1,-0.9881596392156493
8.35138263e+05,7.99999099e-01,-1.88869774e-13,2.04733961e-01,3.62996999,3.65104153e-01,-1.84509847,8.89510408e-06,6.42704940,-2.45681566e-01,-1,-0.9875410408293721
8.78613572e+05,7.99999091e-01,-1.78160942e-13,1.87169219e-01,3.62947552,3.57310731e-01,-1.84509847,8.61013809e-06,6.43469447,-2.22712157e-01,-1,-0.9868906901789926
9.24395396e+05,7.99999083e-01,-1.68066670e-13,1.69581588e-01,3.62894522,3.49577502e-01,-1.84509847,8.32813697e-06,6.44228236,-1.99913299e-01,-1,-0.9862058361848792
9.72557833e+05,7.99999075e-01,-1.58588065e-13,1.52143698e-01,3.62842833,3.41892345e-01,-1.84509847,8.05699438e-06,6.44982446,-1.77250509e-01,-1,-0.9854853704090796
1.02325542e+06,7.99999067e-01,-1.49736534e-13,1.34656249e-01,3.62787040,3.34264479e-01,-1.84509847,7.79311666e-06,6.45731213,-1.54753744e-01,-1,-0.9847269811201587
1.07660206e+06,7.99999060e-01,-1.41360771e-13,1.17261879e-01,3.62731147,3.26685147e-01,-1.84509847,7.53503186e-06,6.46475344,-1.32392626e-01,-1,-0.9839289644339618
1.13269933e+06,7.99999052e-01,-1.33478504e-13,9.98264083e-02,3.62671643,3.19157500e-01,-1.84509847,7.28171693e-06,6.47214572,-1.10179897e-01,-1,-0.9830898008519614
1.19177688e+06,7.99999044e-01,-1.26055459e-13,8.24208762e-02,3.62610414,3.11679306e-01,-1.84509847,7.03447453e-06,6.47949069,-8.81024409e-02,-1,-0.9822060550213031
1.25390989e+06,7.99999037e-01,-1.19056533e-13,6.50302835e-02,3.62547221,3.04247870e-01,-1.84509847,6.79307775e-06,6.48679188,-6.61639558e-02,-1,-0.9812766023183093
1.31925930e+06,7.99999029e-01,-1.12459706e-13,4.76540038e-02,3.62482114,2.96861866e-01,-1.84509847,6.55768049e-06,6.49404915,-4.43542282e-02,-1,-0.9802990352285522
1.38808393e+06,7.99999022e-01,-1.06238364e-13,3.02801116e-02,3.62414793,2.89521356e-01,-1.84509847,6.32754310e-06,6.50126308,-2.26771084e-02,-1,-0.9792694820427972
