star_age,star_mass,star_mdot,log_L,log_Teff,log_R,log_surf_z,v_wind_Km_per_s,log_center_T,log_center_Rho,phase,x
1.28302489e+04,2.49999983e-01,-1.09727273e-12,2.45129324e-01,3.53085785,5.83526111e-01,-1.84509847,9.26222414e-06,5.73794077,-1.32619000,-1,-1.0
1.35504909e+04,2.49999982e-01,-1.07845880e-12,2.40052414e-01,3.53080537,5.81092621e-01,-1.84509847,9.17383471e-06,5.74018670,-1.31948547,-1,-0.9999988101788935
1.43113709e+04,2.49999981e-01,-1.05926974e-12,2.34779487e-01,3.53074982,5.78567247e-01,-1.84509847,9.08251101e-06,5.74251844,-1.31252680,-1,-0.9999975532248647
1.51153792e+04,2.49999981e-01,-1.03972162e-12,2.29306308e-01,3.53069104,5.75948217e-01,-1.84509847,8.98815038e-06,5.74493711,-1.30530681,-1,-0.9999962250240029
1.59643824e+04,2.49999980e-01,-1.01984203e-12,2.23631771e-01,3.53062903,5.73234987e-01,-1.84509847,8.89082675e-06,5.74744367,-1.29782426,-1,-0.999994822492733
1.68603679e+04,2.49999979e-01,-9.99656491e-13,2.17755101e-01,3.53056367,5.70427364e-01,-1.84509847,8.79056000e-06,5.75003810,-1.29007778,-1,-0.9999933423479218
1.78053173e+04,2.49999978e-01,-9.79192399e-13,2.11685219e-01,3.53049738,5.67525001e-01,-1.84509847,8.68755877e-06,5.75272079,-1.28206786,-1,-0.9999917813160176
1.88011639e+04,2.49999977e-01,-9.58499946e-13,2.05410714e-01,3.53042724,5.64528031e-01,-1.84509847,8.58187626e-06,5.75549168,-1.27379236,-1,-0.9999901362032589
1.98522723e+04,2.49999976e-01,-9.37555768e-13,1.98918154e-01,3.53035172,5.61432795e-01,-1.84509847,8.47294917e-06,5.75835452,-1.26524157,-1,-0.9999883997994397
2.09665871e+04,2.49999975e-01,-9.16382543e-13,1.92168711e-01,3.53027192,5.58217672e-01,-1.84509847,8.36104671e-06,5.76130258,-1.25639898,-1,-0.9999865589802867
2.21387401e+04,2.49999974e-01,-8.94824732e-13,1.85203528e-01,3.53018831,5.54902303e-01,-1.84509847,8.24447823e-06,5.76432942,-1.24730063,-1,-0.9999846226139272
2.33762748e+04,2.49999973e-01,-8.73286592e-13,1.78051425e-01,3.53010092,5.51501029e-01,-1.84509847,8.12610049e-06,5.76747301,-1.23790103,-1,-0.9999825782386947
2.46847755e+04,2.49999972e-01,-8.51613194e-13,1.70635936e-01,3.53000880,5.47977512e-01,-1.84509847,8.00489764e-06,5.77070802,-1.22819947,-1,-0.9999804166294706
2.60622311e+04,2.49999971e-01,-8.29875514e-13,1.63060455e-01,3.52991307,5.44381243e-01,-1.84509847,7.88046253e-06,5.77404060,-1.21823987,-1,-0.9999781411085399
2.75200302e+04,2.49999969e-01,-8.08255233e-13,1.55218775e-01,3.52981237,5.40661797e-01,-1.84509847,7.75501188e-06,5.77748210,-1.20794731,-1,-0.9999757328622306
2.90559096e+04,2.49999968e-01,-7.86332646e-13,1.47170779e-01,3.52970746,5.36847627e-01,-1.84509847,7.62394819e-06,5.78101550,-1.19738079,-1,-0.9999731956292904
3.06761134e+04,2.49999967e-01,-7.64553883e-13,1.38900309e-01,3.52959831,5.32930696e-01,-1.84509847,7.49142226e-06,5.78464802,-1.18651766,-1,-0.9999705190946283
3.23897397e+04,2.49999966e-01,-7.42961843e-13,1.30413187e-01,3.52948493,5.28913885e-01,-1.84509847,7.35722554e-06,5.78837748,-1.17536544,-1,-0.9999676882284187
3.41944983e+04,2.49999964e-01,-7.21265993e-13,1.21680085e-01,3.52936718,5.24782826e-01,-1.84509847,7.21900162e-06,5.79221227,-1.16389515,-1,-0.999964706814013
3.60973588e+04,2.49999963e-01,-6.99744841e-13,1.12803478e-01,3.52924620,5.20586497e-01,-1.84509847,7.07819765e-06,5.79611162,-1.15223246,-1,-0.9999615633378123
3.81098465e+04,2.49999962e-01,-6.78429186e-13,1.03624871e-01,3.52911961,5.16250361e-01,-1.84509847,6.93588269e-06,5.80014190,-1.14017364,-1,-0.9999582387603201
4.02329698e+04,2.49999960e-01,-6.57230412e-13,9.43405562e-02,3.52899720,5.11853038e-01,-1.84509847,6.79048915e-06,5.80423167,-1.12793431,-1,-0.9999547314156857
4.24721090e+04,2.49999959e-01,-6.36452486e-13,8.48120289e-02,3.52886453,5.07354109e-01,-1.84509847,6.64461943e-06,5.80841737,-1.11540556,-1,-0.9999510324157931
4.48341286e+04,2.49999957e-01,-6.15751813e-13,7.50773770e-02,3.52872602,5.02763805e-01,-1.84509847,6.49469946e-06,5.81269028,-1.10261333,-1,-0.9999471304206662
4.73259812e+04,2.49999956e-01,-5.95377024e-13,6.51232114e-02,3.52858351,4.98071742e-01,-1.84509847,6.34340738e-06,5.81706012,-1.08952809,-1,-0.9999430139447902
4.99552719e+04,2.49999954e-01,-5.75268873e-13,5.50099226e-02,3.52843815,4.93305820e-01,-1.84509847,6.18966431e-06,5.82150152,-1.07622875,-1,-0.999938670424737
5.27289106e+04,2.49999953e-01,-5.55490203e-13,4.46712422e-02,3.52828928,4.88434216e-01,-1.84509847,6.03750613e-06,5.82604359,-1.06262686,-1,-0.9999340884455312
5.56551652e+04,2.49999951e-01,-5.36032756e-13,3.41797580e-02,3.52813791,4.83491214e-01,-1.84509847,5.88470098e-06,5.83065576,-1.04881541,-1,-0.9999292543488162
5.87413242e+04,2.49999950e-01,-5.16951313e-13,2.34687109e-02,3.52798286,4.78445788e-01,-1.84509847,5.73090857e-06,5.83536579,-1.03471115,-1,-0.9999241560941791
6.19959049e+04,2.49999948e-01,-4.98257057e-13,1.25859439e-02,3.52782461,4.73320902e-01,-1.84509847,5.57592753e-06,5.84015307,-1.02037125,-1,-0.9999187796112611
6.54305406e+04,2.49999946e-01,-4.79915309e-13,1.54968316e-03,3.52766380,4.68124386e-01,-1.84509847,5.41927813e-06,5.84501057,-1.00582248,-1,-0.9999131056821523
6.90573718e+04,2.49999945e-01,-4.62007425e-13,-9.63507959e-03,3.52751228,4.62835046e-01,-1.84509847,5.26289457e-06,5.84995781,-9.91000227e-01,-1,-0.9999071142510615
7.28806746e+04,2.49999943e-01,-4.44600190e-13,-2.09888705e-02,3.52735408,4.57474560e-01,-1.84509847,5.10641567e-06,5.85497378,-9.75971782e-01,-1,-0.9999007982539825
7.69097079e+04,2.49999941e-01,-4.27527491e-13,-3.25122500e-02,3.52718811,4.52044804e-01,-1.84509847,4.94795493e-06,5.86005703,-9.60738309e-01,-1,-0.9998941423954526
8.11651909e+04,2.49999939e-01,-4.10924366e-13,-4.42068579e-02,3.52702039,4.46532951e-01,-1.84509847,4.78945036e-06,5.86521989,-9.45259100e-01,-1,-0.9998871124478905
8.56525196e+04,2.49999938e-01,-3.94795745e-13,-5.60266154e-02,3.52685526,4.40953321e-01,-1.84509847,4.63152511e-06,5.87044888,-9.29576743e-01,-1,-0.9998796994972444
9.03813685e+04,2.49999936e-01,-3.79132142e-13,-6.79418836e-02,3.52668979,4.35326625e-01,-1.84509847,4.47389736e-06,5.87572581,-9.13749189e-01,-1,-0.999871887561491
9.53780145e+04,2.49999934e-01,-3.63944274e-13,-8.00073397e-02,3.52652877,4.29615936e-01,-1.84509847,4.31726100e-06,5.88108460,-8.97670432e-01,-1,-0.999863633231873
1.00639339e+05,2.49999932e-01,-3.49191044e-13,-9.21713737e-02,3.52636289,4.23865679e-01,-1.84509847,4.16066004e-06,5.88648409,-8.81470421e-01,-1,-0.9998549416602366
1.06198630e+05,2.49999930e-01,-3.34969047e-13,-1.04454061e-01,3.52619808,4.18053957e-01,-1.84509847,4.00579507e-06,5.89194458,-8.65088009e-01,-1,-0.9998457578556692
1.12053675e+05,2.49999928e-01,-3.21196712e-13,-1.16784114e-01,3.52603482,4.12215453e-01,-1.84509847,3.85212642e-06,5.89743346,-8.48617459e-01,-1,-0.9998360854731634
1.18240311e+05,2.49999926e-01,-3.07910174e-13,-1.29217506e-01,3.52587287,4.06322668e-01,-1.84509847,3.70030212e-06,5.90297633,-8.31986253e-01,-1,-0.9998258653109243
1.24756418e+05,2.49999924e-01,-2.95142608e-13,-1.41687484e-01,3.52571492,4.00403568e-01,-1.84509847,3.55151520e-06,5.90854726,-8.15269098e-01,-1,-0.9998151008711372
1.31641181e+05,2.49999922e-01,-2.82819347e-13,-1.54203814e-01,3.52555871,3.94457819e-01,-1.84509847,3.40487197e-06,5.91414639,-7.98462369e-01,-1,-0.9998037274211983
1.38899697e+05,2.49999920e-01,-2.71032870e-13,-1.66712699e-01,3.52540610,3.88508600e-01,-1.84509847,3.26215568e-06,5.91975198,-7.81633966e-01,-1,-0.9997917365409954
1.46559073e+05,2.49999918e-01,-2.59771837e-13,-1.79159710e-01,3.52525790,3.82581501e-01,-1.84509847,3.12362163e-06,5.92533981,-7.64852424e-01,-1,-0.9997790834504678
1.54649598e+05,2.49999916e-01,-2.49057136e-13,-1.91515077e-01,3.52512019,3.76679230e-01,-1.84509847,2.99037210e-06,5.93090753,-7.48128125e-01,-1,-0.9997657181129729
1.63178516e+05,2.49999914e-01,-2.38868603e-13,-2.03747941e-01,3.52498821,3.70826767e-01,-1.84509847,2.86215889e-06,5.93643149,-7.31533525e-01,-1,-0.9997516285616104
1.72198364e+05,2.49999912e-01,-2.29261080e-13,-2.15801487e-01,3.52485871,3.65058996e-01,-1.84509847,2.73962209e-06,5.94187840,-7.15170832e-01,-1,-0.9997367280066187
1.81712030e+05,2.49999910e-01,-2.20175481e-13,-2.27616771e-01,3.52473355,3.59401664e-01,-1.84509847,2.62257090e-06,5.94722363,-6.99111019e-01,-1,-0.9997210116770969
1.91769445e+05,2.49999908e-01,-2.11680411e-13,-2.39147812e-01,3.52461427,3.53874713e-01,-1.84509847,2.51217940e-06,5.95244817,-6.83414966e-01,-1,-0.9997043970883277
2.02385700e+05,2.49999906e-01,-2.03757869e-13,-2.50256057e-01,3.52450203,3.48545054e-01,-1.84509847,2.40862209e-06,5.95748822,-6.68272590e-01,-1,-0.9996868593103704
2.13622620e+05,2.49999903e-01,-1.96471234e-13,-2.60878677e-01,3.52439868,3.43440451e-01,-1.84509847,2.31294104e-06,5.96231737,-6.53757592e-01,-1,-0.9996682962099284
2.25489965e+05,2.49999901e-01,-1.89805573e-13,-2.70922617e-01,3.52430396,3.38607917e-01,-1.84509847,2.22512535e-06,5.96689132,-6.40009641e-01,-1,-0.9996486916637346
2.38031757e+05,2.49999899e-01,-1.83739752e-13,-2.80365860e-01,3.52421629,3.34061632e-01,-1.84509847,2.14492378e-06,5.97119626,-6.27068206e-01,-1,-0.9996279729485866
2.51298515e+05,2.49999896e-01,-1.78298302e-13,-2.89088690e-01,3.52413719,3.29858426e-01,-1.84509847,2.07284411e-06,5.97517802,-6.15096235e-01,-1,-0.9996060566084067
2.65338965e+05,2.49999894e-01,-1.73448319e-13,-2.97084643e-01,3.52406599,3.26002847e-01,-1.84509847,2.00850671e-06,5.97883181,-6.04109638e-01,-1,-0.9995828621491063
2.80195231e+05,2.49999892e-01,-1.69132184e-13,-3.04384134e-01,3.52400214,3.22480803e-01,-1.84509847,1.95119395e-06,5.98217058,-5.94072706e-01,-1,-0.9995583199829298
2.95892417e+05,2.49999889e-01,-1.65304526e-13,-3.11001172e-01,3.52394522,3.19286123e-01,-1.84509847,1.90037147e-06,5.98519999,-5.84963016e-01,-1,-0.9995323886387202
3.12454971e+05,2.49999886e-01,-1.61899155e-13,-3.17042824e-01,3.52389406,3.16367623e-01,-1.84509847,1.85512570e-06,5.98796791,-5.76640154e-01,-1,-0.9995050277290154
3.30016280e+05,2.49999883e-01,-1.58855679e-13,-3.22594324e-01,3.52384777,3.13684449e-01,-1.84509847,1.81466829e-06,5.99051350,-5.68986206e-01,-1,-0.9994760169019506
3.48547975e+05,2.49999881e-01,-1.56070327e-13,-3.27760897e-01,3.52380696,3.11182776e-01,-1.84509847,1.77777887e-06,5.99288728,-5.61847619e-01,-1,-0.999445403022378
3.68073050e+05,2.49999878e-01,-1.53487430e-13,-3.32709294e-01,3.52376768,3.08787151e-01,-1.84509847,1.74347331e-06,5.99516090,-5.55010961e-01,-1,-0.999413148104806
3.88739348e+05,2.49999874e-01,-1.51026901e-13,-3.37535577e-01,3.52373516,3.06439045e-01,-1.84509847,1.71112555e-06,5.99738999,-5.48307698e-01,-1,-0.9993790079164323
4.10613538e+05,2.49999871e-01,-1.48619157e-13,-3.42435468e-01,3.52369614,3.04067142e-01,-1.84509847,1.67900770e-06,5.99964185,-5.41535322e-01,-1,-0.9993428723217979
4.33686138e+05,2.49999868e-01,-1.46168721e-13,-3.47514530e-01,3.52365603,3.01607828e-01,-1.84509847,1.64634058e-06,6.00197722,-5.34510228e-01,-1,-0.9993047569849208
4.58019164e+05,2.49999864e-01,-1.43617681e-13,-3.52899777e-01,3.52361413,2.98999009e-01,-1.84509847,1.61237741e-06,6.00445524,-5.27057051e-01,-1,-0.9992645594569775
4.83665176e+05,2.49999861e-01,-1.40894084e-13,-3.58720647e-01,3.52356931,2.96178208e-01,-1.84509847,1.57619419e-06,6.00713501,-5.18996735e-01,-1,-0.9992221929102106
5.10664844e+05,2.49999857e-01,-1.37943041e-13,-3.65107888e-01,3.52352060,2.93082004e-01,-1.84509847,1.53709846e-06,6.01007720,-5.10145523e-01,-1,-0.9991775901588351
5.39298562e+05,2.49999853e-01,-1.34664297e-13,-3.72347200e-01,3.52346636,2.89570839e-01,-1.84509847,1.49382986e-06,6.01341453,-5.00104966e-01,-1,-0.9991302879992341
5.69358781e+05,2.49999849e-01,-1.31025165e-13,-3.80489032e-01,3.52340635,2.85619941e-01,-1.84509847,1.44604590e-06,6.01717074,-4.88802896e-01,-1,-0.9990806292969734
6.01062803e+05,2.49999845e-01,-1.26912911e-13,-3.89884660e-01,3.52333844,2.81057942e-01,-1.84509847,1.39237482e-06,6.02150935,-4.75746618e-01,-1,-0.999028255074784
6.34359254e+05,2.49999841e-01,-1.22283434e-13,-4.00752003e-01,3.52326105,2.75779057e-01,-1.84509847,1.33234149e-06,6.02653142,-4.60632155e-01,-1,-0.9989732502011819
6.69279334e+05,2.49999837e-01,-1.17067425e-13,-4.13454597e-01,3.52317183,2.69606195e-01,-1.84509847,1.26522295e-06,6.03240614,-4.42945374e-01,-1,-0.998915563134576
7.05839334e+05,2.49999833e-01,-1.11193312e-13,-4.28385494e-01,3.52307089,2.62342622e-01,-1.84509847,1.19058722e-06,6.03932187,-4.22123276e-01,-1,-0.9988551669626567
7.43948467e+05,2.49999829e-01,-1.04716709e-13,-4.45719028e-01,3.52296119,2.53895265e-01,-1.84509847,1.10973904e-06,6.04736889,-3.97891360e-01,-1,-0.998792211663194
7.83584530e+05,2.49999825e-01,-9.77763676e-14,-4.65601272e-01,3.52283223,2.44212060e-01,-1.84509847,1.02455036e-06,6.05659918,-3.70091622e-01,-1,-0.9987267339149678
8.24799554e+05,2.49999821e-01,-9.06503370e-14,-4.87520610e-01,3.52269023,2.33536389e-01,-1.84509847,9.39334415e-07,6.06678248,-3.39414690e-01,-1,-0.9986586477641155
8.67868768e+05,2.49999817e-01,-8.37497852e-14,-5.10482343e-01,3.52254360,2.22348778e-01,-1.84509847,8.59574648e-07,6.07746093,-3.07236237e-01,-1,-0.9985874985394665
9.13155943e+05,2.49999813e-01,-7.73600727e-14,-5.33556034e-01,3.52239567,2.11107794e-01,-1.84509847,7.88585883e-07,6.08819732,-2.74868622e-01,-1,-0.998512685300762
9.60929414e+05,2.49999810e-01,-7.15711415e-14,-5.56251905e-01,3.52224995,2.00051295e-01,-1.84509847,7.27134725e-07,6.09878944,-2.42952618e-01,-1,-0.9984337647655407
1.01139013e+06,2.49999806e-01,-6.63346417e-14,-5.78410124e-01,3.52210757,1.89256941e-01,-1.84509847,6.74373618e-07,6.10922161,-2.11624419e-01,-1,-0.9983504049712655
1.06468930e+06,2.49999803e-01,-6.15980807e-14,-6.00061555e-01,3.52196590,1.78714584e-01,-1.84509847,6.24642229e-07,6.11931080,-1.81186743e-01,-1,-0.9982623561245896
1.12093606e+06,2.49999800e-01,-5.72750666e-14,-6.21302134e-01,3.52182593,1.68374234e-01,-1.84509847,5.79432915e-07,6.12921131,-1.51312942e-01,-1,-0.9981694379356711
1.18028656e+06,2.49999796e-01,-5.33237601e-14,-6.42179570e-01,3.52168314,1.58221079e-01,-1.84509847,5.40424732e-07,6.13893773,-1.21953673e-01,-1,-0.9980713924487594
1.24292964e+06,2.49999793e-01,-4.97047516e-14,-6.62714615e-01,3.52153940,1.48241053e-01,-1.84509847,5.06652424e-07,6.14850275,-9.30725781e-02,-1,-0.9979679077050716
1.30900199e+06,2.49999790e-01,-4.63802797e-14,-6.82935710e-01,3.52139505,1.38419199e-01,-1.84509847,4.77200228e-07,6.15792035,-6.46281653e-02,-1,-0.9978587578962722
1.37873149e+06,2.49999787e-01,-4.33232512e-14,-7.02850109e-01,3.52125350,1.28745091e-01,-1.84509847,4.51410165e-07,6.16720123,-3.65924860e-02,-1,-0.9977435665705107
1.45228706e+06,2.49999784e-01,-4.05053672e-14,-7.22495881e-01,3.52111071,1.19207794e-01,-1.84509847,4.28573297e-07,6.17635396,-8.93499625e-03,-1,-0.9976220546763276
1.52986157e+06,2.49999781e-01,-3.79066539e-14,-7.41872734e-01,3.52097246,1.09795860e-01,-1.84509847,4.08355817e-07,6.18538993,1.83807153e-02,-1,-0.9974939035974844
1.61172222e+06,2.49999778e-01,-3.55043594e-14,-7.61021841e-01,3.52083220,1.00501837e-01,-1.84509847,3.90384866e-07,6.19431645,4.53721983e-02,-1,-0.9973586719265101
1.69806249e+06,2.49999775e-01,-3.32782536e-14,-7.79952023e-01,3.52069249,9.13161530e-02,-1.84509847,3.74416543e-07,6.20314231,7.20649768e-02,-1,-0.9972160400394622
1.78912091e+06,2.49999772e-01,-3.12131842e-14,-7.98672464e-01,3.52055484,8.22312402e-02,-1.84509847,3.50927116e-07,6.21187373,9.84862691e-02,-1,-0.9970656138909663
1.88515933e+06,2.49999769e-01,-2.92960272e-14,-8.17192096e-01,3.52042049,7.32401219e-02,-1.84509847,3.20428214e-07,6.22051741,1.24651155e-01,-1,-0.9969069609116127
1.98644735e+06,2.49999766e-01,-2.75111223e-14,-8.35526890e-01,3.52028898,6.43357494e-02,-1.84509847,2.93367605e-07,6.22908017,1.50575902e-01,-1,-0.9967396357291927
2.09327590e+06,2.49999764e-01,-2.58555114e-14,-8.53690868e-01,3.52015975,5.55122260e-02,-1.84509847,2.69391837e-07,6.23756782,1.76274361e-01,-1,-0.9965631577348907
2.20595763e+06,2.49999761e-01,-2.43103029e-14,-8.71693405e-01,3.52003330,4.67638467e-02,-1.84509847,2.48002668e-07,6.24598553,2.01768533e-01,-1,-0.9963770104390145
2.32479984e+06,2.49999758e-01,-2.28688323e-14,-8.89548783e-01,3.51990845,3.80858597e-02,-1.84509847,2.28831443e-07,6.25433611,2.27070101e-01,-1,-0.996180686189933
2.45013157e+06,2.49999755e-01,-2.15231136e-14,-9.07260494e-01,3.51978665,2.94735966e-02,-1.84509847,2.11583041e-07,6.26262434,2.52197031e-01,-1,-0.995973641422099
2.58230396e+06,2.49999752e-01,-2.02655985e-14,-9.24840313e-01,3.51966732,2.09223509e-02,-1.84509847,1.95991629e-07,6.27085595,2.77155988e-01,-1,-0.9957552960613383
2.72168796e+06,2.49999750e-01,-1.90894180e-14,-9.42296440e-01,3.51955057,1.24277861e-02,-1.84509847,1.81841831e-07,6.27903363,3.01961112e-01,-1,-0.9955250373078705
2.86870210e+06,2.49999747e-01,-1.79888173e-14,-9.59632269e-01,3.51943746,3.98608781e-03,-1.84509847,1.68967499e-07,6.28716021,3.26619085e-01,-1,-0.9952821737609887
3.02374874e+06,2.49999744e-01,-1.69581258e-14,-9.76853916e-01,3.51932828,-4.40637069e-03,-1.84509847,1.57215153e-07,6.29523954,3.51144795e-01,-1,-0.9950260407324074
3.18725894e+06,2.49999742e-01,-1.59909607e-14,-9.93969407e-01,3.51922266,-1.27528633e-02,-1.84509847,1.46441557e-07,6.30327490,3.75540249e-01,-1,-0.9947559261221847
3.35970186e+06,2.49999739e-01,-1.50860731e-14,-1.01097069,3.51912435,-2.10568923e-02,-1.84509847,1.36588494e-07,6.31126952,3.99822673e-01,-1,-0.9944710548901669
3.54156025e+06,2.49999736e-01,-1.42364660e-14,-1.02786925,3.51903170,-2.93208634e-02,-1.84509847,1.27522942e-07,6.31922565,4.23995814e-01,-1,-0.9941706295458729
3.73334058e+06,2.49999734e-01,-1.34388772e-14,-1.04467275,3.51894392,-3.75470664e-02,-1.84509847,1.19163734e-07,6.32714450,4.48065683e-01,-1,-0.9938538134139964
3.93558005e+06,2.49999731e-01,-1.26891939e-14,-1.06138379,3.51886181,-4.57383626e-02,-1.84509847,1.11440187e-07,6.33502897,4.72039581e-01,-1,-0.9935197190540683
4.14885295e+06,2.49999729e-01,-1.19850450e-14,-1.07800485,3.51878609,-5.38974558e-02,-1.84509847,1.04302873e-07,6.34288089,4.95929385e-01,-1,-0.9931673977539013
4.37374153e+06,2.49999726e-01,-1.13219029e-14,-1.09454794,3.51871506,-6.20269303e-02,-1.84509847,9.76791854e-08,6.35070385,5.19738937e-01,-1,-0.9927958876515943
4.61095011e+06,2.49999723e-01,-1.06998846e-14,-1.11100653,3.51865166,-7.01294246e-02,-1.84509847,9.15601853e-08,6.35850000,5.43473070e-01,-1,-0.9924040252287718
4.86116750e+06,2.49999721e-01,-1.01137877e-14,-1.12739043,3.51859428,-7.82066166e-02,-1.84509847,8.58767783e-08,6.36627056,5.67141687e-01,-1,-0.9919906725891762
5.12502136e+06,2.49999718e-01,-9.56173223e-15,-1.14370161,3.51854336,-8.62603818e-02,-1.84509847,8.05979139e-08,6.37401719,5.90746895e-01,-1,-0.9915547928547641
5.40324506e+06,2.49999716e-01,-9.04153125e-15,-1.15994682,3.51849808,-9.42924257e-02,-1.84509847,7.56889713e-08,6.38174169,6.14296196e-01,-1,-0.9910951745173134
5.69661682e+06,2.49999713e-01,-8.55129219e-15,-1.17612968,3.51845831,-1.02304304e-01,-1.84509847,7.11218903e-08,6.38944504,6.37794348e-01,-1,-0.9906105319775651
6.00597349e+06,2.49999711e-01,-8.08852924e-15,-1.19224794,3.51842565,-1.10298126e-01,-1.84509847,6.68709310e-08,6.39712924,6.61243121e-01,-1,-0.9900994827810204
6.33229281e+06,2.49999708e-01,-7.65204340e-15,-1.20831483,3.51839758,-1.18275424e-01,-1.84509847,6.29135358e-08,6.40479491,6.84643831e-01,-1,-0.9895604117265544
6.67650129e+06,2.49999705e-01,-7.24232161e-15,-1.22431593,3.51837815,-1.26237122e-01,-1.84509847,5.92567173e-08,6.41244208,7.07996800e-01,-1,-0.9889917882436734
7.03946139e+06,2.49999703e-01,-6.85456756e-15,-1.24025596,3.51836704,-1.34184915e-01,-1.84509847,5.58516038e-08,6.42007321,7.31317777e-01,-1,-0.988392187570823
7.42218001e+06,2.49999700e-01,-6.48812425e-15,-1.25614070,3.51836333,-1.42119862e-01,-1.84509847,5.26831641e-08,6.42769008,7.54606635e-01,-1,-0.9877599463353143
7.82574294e+06,2.49999698e-01,-6.14274818e-15,-1.27196848,3.51836795,-1.50042990e-01,-1.84509847,4.97439406e-08,6.43529361,7.77867365e-01,-1,-0.987093270840224
8.25141329e+06,2.49999695e-01,-5.81615226e-15,-1.28773878,3.51838163,-1.57955505e-01,-1.84509847,4.70093215e-08,6.44288470,8.01098518e-01,-1,-0.9863900744605876
