star_age,star_mass,star_mdot,log_L,log_Teff,log_R,log_surf_z,v_wind_Km_per_s,log_center_T,log_center_Rho,phase
3.48723100e+02,5.59999964,-8.95670083e-10,3.19641089,3.61258513,1.89571233,-1.84509848,1.11468286e-04,5.73774224,-3.94440888,-1
3.64990477e+02,5.59999963,-8.85286673e-10,3.19357167,3.61289575,1.89367149,-1.84509848,1.11262726e-04,5.73973323,-3.93843519,-1
3.81958643e+02,5.59999961,-8.74895396e-10,3.19047887,3.61317474,1.89156710,-1.84509848,1.11057990e-04,5.74178715,-3.93227407,-1
3.99692138e+02,5.59999960,-8.64215365e-10,3.18730435,3.61345039,1.88942854,-1.84509848,1.10815437e-04,5.74387470,-3.92601413,-1
4.18235281e+02,5.59999958,-8.53467083e-10,3.18406604,3.61375010,1.88720997,-1.84509848,1.10594649e-04,5.74604020,-3.91951742,-1
4.37360004e+02,5.59999957,-8.42715529e-10,3.18514509,3.61524497,1.88475976,-1.84509848,1.21676169e-04,5.74829699,-3.91274668,-1
4.57173587e+02,5.59999955,-8.39026877e-10,3.18879400,3.61746767,1.88213882,-1.84509848,1.40519832e-04,5.75064227,-3.90571349,-1
4.78349317e+02,5.59999953,-8.38743062e-10,3.18534062,3.61787204,1.87960338,-1.84509848,1.42236832e-04,5.75311760,-3.89828703,-1
5.00485715e+02,5.59999951,-8.27094720e-10,3.18148474,3.61821332,1.87699287,-1.84509848,1.42040269e-04,5.75566812,-3.89063495,-1
5.23669295e+02,5.59999950,-8.15536334e-10,3.17750237,3.61856288,1.87430259,-1.84509848,1.41882187e-04,5.75829663,-3.88274861,-1
5.47975739e+02,5.59999948,-8.03216780e-10,3.17342904,3.61893169,1.87152830,-1.84509848,1.41618719e-04,5.76100732,-3.87461536,-1
5.73384292e+02,5.59999946,-7.90515241e-10,3.16933193,3.61933533,1.86867246,-1.84509848,1.41321120e-04,5.76379736,-3.86624495,-1
5.99937071e+02,5.59999943,-7.77528516e-10,3.16497125,3.61971303,1.86573671,-1.84509848,1.40968999e-04,5.76666640,-3.85763600,-1
6.27676994e+02,5.59999941,-7.64298821e-10,3.16044901,3.62009065,1.86272035,-1.84509848,1.40582344e-04,5.76961470,-3.84879039,-1
6.56652026e+02,5.59999939,-7.50857792e-10,3.15601220,3.62053140,1.85962045,-1.84509848,1.40196648e-04,5.77264372,-3.83970200,-1
6.87116127e+02,5.59999937,-7.37465587e-10,3.15127747,3.62094477,1.85642635,-1.84509848,1.39811954e-04,5.77576556,-3.83033392,-1
7.18912334e+02,5.59999935,-7.23846643e-10,3.14653469,3.62139769,1.85314912,-1.84509848,1.39408287e-04,5.77896823,-3.82072378,-1
7.52072310e+02,5.59999932,-7.10342408e-10,3.14163258,3.62185124,1.84979096,-1.84509848,1.39028565e-04,5.78225045,-3.81087283,-1
7.86911750e+02,5.59999930,-6.96590163e-10,3.13664231,3.62233111,1.84633609,-1.84509848,1.38612499e-04,5.78562677,-3.80073861,-1
8.23249504e+02,5.59999927,-6.82635258e-10,3.13135225,3.62277626,1.84280076,-1.84509848,1.38136185e-04,5.78908288,-3.79036578,-1
8.61278589e+02,5.59999925,-6.68625975e-10,3.12606499,3.62326720,1.83917525,-1.84509848,1.37664776e-04,5.79262649,-3.77972822,-1
9.01052678e+02,5.59999922,-6.54710209e-10,3.12059555,3.62375646,1.83546201,-1.84509848,1.37203353e-04,5.79625603,-3.76883130,-1
9.42654253e+02,5.59999920,-6.40557406e-10,3.11507038,3.62427661,1.83165912,-1.84509848,1.36695914e-04,5.79997269,-3.75767277,-1
9.86110607e+02,5.59999917,-6.26712223e-10,3.10936260,3.62479390,1.82777065,-1.84509848,1.36239360e-04,5.80377327,-3.74625882,-1
1.03165554e+03,5.59999914,-6.12743468e-10,3.10350864,3.62532082,1.82378982,-1.84509848,1.35744915e-04,5.80766426,-3.73457229,-1
1.07918625e+03,5.59999911,-5.98737525e-10,3.09775887,3.62591743,1.81972172,-1.84509848,1.35255305e-04,5.81163935,-3.72263185,-1
1.12893434e+03,5.59999908,-5.85041653e-10,3.09167608,3.62647549,1.81556422,-1.84509848,1.34797590e-04,5.81570331,-3.71042418,-1
1.18099703e+03,5.59999905,-5.71182459e-10,3.08547423,3.62704841,1.81131744,-1.84509848,1.34284693e-04,5.81985492,-3.69795250,-1
1.23536346e+03,5.59999902,-5.57281281e-10,3.07905793,3.62760977,1.80698659,-1.84509848,1.33729971e-04,5.82408928,-3.68523340,-1
1.29219262e+03,5.59999899,-5.43364153e-10,3.07266017,3.62821959,1.80256806,-1.84509848,1.33158843e-04,5.82840902,-3.67225726,-1
1.35165115e+03,5.59999896,-5.29722689e-10,3.06599003,3.62880446,1.79806326,-1.84509848,1.32610323e-04,5.83281423,-3.65902661,-1
1.41386230e+03,5.59999893,-5.16061103e-10,3.05925704,3.62941752,1.79347062,-1.84509848,1.32027472e-04,5.83730524,-3.64553508,-1
1.47888492e+03,5.59999889,-5.02520987e-10,3.05228368,3.63001124,1.78879652,-1.84509848,1.31426076e-04,5.84187642,-3.63180125,-1
1.54686654e+03,5.59999886,-4.89079850e-10,3.04535039,3.63065773,1.78403688,-1.84509848,1.30823113e-04,5.84653111,-3.61781627,-1
1.61793715e+03,5.59999883,-4.75793307e-10,3.03837094,3.63133532,1.77919198,-1.84509848,1.30222916e-04,5.85126948,-3.60357820,-1
1.69221237e+03,5.59999879,-4.62548840e-10,3.03098232,3.63195007,1.77426817,-1.84509848,1.29558478e-04,5.85608641,-3.58910309,-1
1.76987798e+03,5.59999876,-4.49590789e-10,3.02356830,3.63259866,1.76926399,-1.84509848,1.28926464e-04,5.86098204,-3.57439215,-1
1.85107582e+03,5.59999872,-4.36837391e-10,3.01615285,3.63328796,1.76417766,-1.84509848,1.28306708e-04,5.86595815,-3.55943953,-1
1.93593881e+03,5.59999868,-4.24107334e-10,3.00850894,3.63395857,1.75901449,-1.84509848,1.27622541e-04,5.87100974,-3.54425618,-1
2.02464662e+03,5.59999865,-4.11692507e-10,3.00080908,3.63465421,1.75377328,-1.84509848,1.26971616e-04,5.87613787,-3.52884190,-1
2.11739022e+03,5.59999861,-3.99318714e-10,2.99285383,3.63532325,1.74845758,-1.84509848,1.26251638e-04,5.88133990,-3.51320228,-1
2.21440367e+03,5.59999857,-3.87194243e-10,2.98480652,3.63600627,1.74306787,-1.84509848,1.25535210e-04,5.88661509,-3.49734686,-1
2.31580898e+03,5.59999853,-3.75254335e-10,2.97679446,3.63673548,1.73760341,-1.84509848,1.24809485e-04,5.89196333,-3.48126944,-1
2.42175742e+03,5.59999850,-3.63592749e-10,2.96866524,3.63747174,1.73206629,-1.84509848,1.24094926e-04,5.89738387,-3.46497414,-1
2.53244634e+03,5.59999846,-3.52079291e-10,2.96032785,3.63818978,1.72646151,-1.84509848,1.23337884e-04,5.90287187,-3.44847668,-1
2.64830717e+03,5.59999842,-3.40685536e-10,2.95190082,3.63892113,1.72078531,-1.84509848,1.22529329e-04,5.90843069,-3.43176300,-1
2.76927501e+03,5.59999838,-3.29814079e-10,2.94353153,3.63970153,1.71503986,-1.84509848,1.21826546e-04,5.91405818,-3.41484343,-1
2.89583314e+03,5.59999833,-3.19013267e-10,2.93486490,3.64043951,1.70923059,-1.84509848,1.21039980e-04,5.91975037,-3.39772985,-1
3.02808493e+03,5.59999829,-3.08502718e-10,2.92640385,3.64123365,1.70341178,-1.84509848,1.20243455e-04,5.92537366,-3.38074162,-1
3.16636553e+03,5.59999825,-2.98368984e-10,2.91758016,3.64198086,1.69750551,-1.84509848,1.19494133e-04,5.93115026,-3.36336815,-1
3.31073591e+03,5.59999821,-2.88423618e-10,2.90865655,3.64273163,1.69154217,-1.84509848,1.18716513e-04,5.93699318,-3.34580801,-1
3.46185102e+03,5.59999817,-2.78510839e-10,2.89968546,3.64349117,1.68553754,-1.84509848,1.17829334e-04,5.94287858,-3.32812246,-1
3.61958811e+03,5.59999812,-2.68990245e-10,2.89062879,3.64428331,1.67942493,-1.84509848,1.17025235e-04,5.94887380,-3.31010851,-1
3.78459115e+03,5.59999808,-2.59752481e-10,2.88143325,3.64504891,1.67329595,-1.84509848,1.16202608e-04,5.95488534,-3.29204787,-1
3.95707997e+03,5.59999804,-2.50652517e-10,2.87234235,3.64586829,1.66711175,-1.84509848,1.15325730e-04,5.96095200,-3.27382279,-1
4.13725368e+03,5.59999799,-2.41762055e-10,2.86318378,3.64669859,1.66087187,-1.84509848,1.14424091e-04,5.96707500,-3.25543202,-1
4.32558023e+03,5.59999795,-2.33302648e-10,2.85374899,3.64751054,1.65453056,-1.84509848,1.13623383e-04,5.97330045,-3.23673125,-1
4.52248786e+03,5.59999790,-2.24996622e-10,2.84427494,3.64831512,1.64818439,-1.84509848,1.12748210e-04,5.97953179,-3.21801587,-1
4.72819009e+03,5.59999786,-2.16947545e-10,2.83473104,3.64912746,1.64178775,-1.84509848,1.11874734e-04,5.98581441,-3.19914925,-1
4.94311259e+03,5.59999781,-2.09024604e-10,2.82519544,3.64996477,1.63534534,-1.84509848,1.10933174e-04,5.99214279,-3.18014501,-1
5.16786763e+03,5.59999777,-2.01373477e-10,2.81533999,3.65074845,1.62885024,-1.84509848,1.10003757e-04,5.99852461,-3.16097939,-1
5.40274391e+03,5.59999772,-1.93956068e-10,2.80564289,3.65160763,1.62228334,-1.84509848,1.09074691e-04,6.00497743,-3.14160203,-1
5.64811750e+03,5.59999768,-1.86745386e-10,2.79571252,3.65241031,1.61571278,-1.84509916,1.08110783e-04,6.01141126,-3.12218499,-1
5.90462294e+03,5.59999763,-1.79739954e-10,2.78593707,3.65327476,1.60909616,-1.84510010,1.07123164e-04,6.01790603,-3.10265074,-1
6.17264748e+03,5.59999758,-1.72950804e-10,2.77601489,3.65412110,1.60244239,-1.84510184,1.06123597e-04,6.02435324,-3.08290170,-1
6.45263157e+03,5.59999753,-1.66459670e-10,2.76576875,3.65492720,1.59570712,-1.84510548,1.05192384e-04,6.03074970,-3.06271382,-1
6.74553053e+03,5.59999749,-1.60260106e-10,2.75570415,3.65577290,1.58898342,-1.84510923,1.04278214e-04,6.03716149,-3.04258193,-1
7.05154521e+03,5.59999744,-1.54144020e-10,2.74563469,3.65663485,1.58222479,-1.84511317,1.03279060e-04,6.04356086,-3.02226195,-1
7.37116837e+03,5.59999739,-1.48205808e-10,2.73541312,3.65747384,1.57543602,-1.84511710,1.02260791e-04,6.04994242,-3.00176724,-1
7.70508925e+03,5.59999734,-1.42427229e-10,2.72501173,3.65828006,1.56862290,-1.84512090,1.01212649e-04,6.05629994,-2.98108647,-1
8.05436572e+03,5.59999729,-1.36955037e-10,2.71479522,3.65917070,1.56173336,-1.84512406,1.00243707e-04,6.06263586,-2.95994059,-1
8.41926145e+03,5.59999725,-1.31629920e-10,2.70437274,3.65999727,1.55486898,-1.84512477,9.92318063e-05,6.06897432,-2.93889619,-1
8.80068774e+03,5.59999720,-1.26506663e-10,2.69411287,3.66087815,1.54797730,-1.84511880,9.82227603e-05,6.07530670,-2.91765737,-1
9.19911020e+03,5.59999715,-1.21522853e-10,2.68366812,3.66172282,1.54106557,-1.84511411,9.71870926e-05,6.08163105,-2.89625342,-1
9.61548976e+03,5.59999710,-1.16735672e-10,2.67325833,3.66258530,1.53413571,-1.84511137,9.61617892e-05,6.08795169,-2.87467819,-1
1.00505955e+04,5.59999705,-1.12154191e-10,2.66277662,3.66345918,1.52714710,-1.84510911,9.51791768e-05,6.09426276,-2.85262398,-1
1.05054214e+04,5.59999700,-1.07757734e-10,2.65216034,3.66428316,1.52019100,-1.84510747,9.42046810e-05,6.10057943,-2.83072221,-1
1.09809147e+04,5.59999695,-1.03485727e-10,2.64171840,3.66515774,1.51322086,-1.84510666,9.31881952e-05,6.10690039,-2.80865793,-1
1.14778177e+04,5.59999690,-9.93935717e-11,2.63125674,3.66603278,1.50623996,-1.84510595,9.21946639e-05,6.11322605,-2.78644646,-1
1.19969799e+04,5.59999685,-9.54703315e-11,2.62067334,3.66687830,1.49925723,-1.84510557,9.12242518e-05,6.11955578,-2.76410010,-1
1.25395751e+04,5.59999680,-9.16719202e-11,2.61020376,3.66776596,1.49224711,-1.84510541,9.02350863e-05,6.12589494,-2.74142570,-1
1.31065941e+04,5.59999675,-8.80592883e-11,2.59959634,3.66860720,1.48526092,-1.84510597,8.92914247e-05,6.13224667,-2.71881729,-1
1.36992293e+04,5.59999670,-8.45860613e-11,2.58906490,3.66946965,1.47827029,-1.84511073,8.83511383e-05,6.13861583,-2.69602996,-1
1.43188758e+04,5.59999665,-8.12554301e-11,2.57866466,3.67035736,1.47129476,-1.84511123,8.74159298e-05,6.14500836,-2.67326607,-1
1.49661964e+04,5.59999660,-7.80427601e-11,2.56804343,3.67117933,1.46434021,-1.84511084,8.64832768e-05,6.15141680,-2.65047016,-1
1.56430556e+04,5.59999654,-7.49377627e-11,2.55748100,3.67200684,1.45740398,-1.84511075,8.55304804e-05,6.15785273,-2.62764406,-1
1.63513780e+04,5.59999649,-7.20393776e-11,2.54724460,3.67289071,1.45051804,-1.84511665,8.46556654e-05,6.16434215,-2.60506536,-1
1.70911577e+04,5.59999644,-6.92199625e-11,2.53672170,3.67370139,1.44363522,-1.84511814,8.37663408e-05,6.17083062,-2.58226604,-1
1.78649229e+04,5.59999639,-6.65353675e-11,2.52641828,3.67454437,1.43679756,-1.84511800,8.28956186e-05,6.17735279,-2.55965628,-1
1.86742310e+04,5.59999634,-6.39719801e-11,2.51615464,3.67534979,1.43005490,-1.84511815,8.20314287e-05,6.18387208,-2.53760751,-1
1.95203235e+04,5.59999628,-6.15273888e-11,2.50604825,3.67618760,1.42332607,-1.84512014,8.11941392e-05,6.19040814,-2.51534108,-1
2.04047815e+04,5.59999623,-5.92012914e-11,2.49594855,3.67700475,1.41664193,-1.84513202,8.03898835e-05,6.19694112,-2.49309145,-1
2.13297075e+04,5.59999618,-5.69705947e-11,2.48598084,3.67782058,1.41002642,-1.84513299,7.95846736e-05,6.20344178,-2.47102278,-1
2.22973142e+04,5.59999612,-5.48496318e-11,2.47605014,3.67860856,1.40348511,-1.84513204,7.88059988e-05,6.20983118,-2.44914570,-1
2.33100381e+04,5.59999607,-5.28583003e-11,2.46628314,3.67937573,1.39706727,-1.84512951,7.80737193e-05,6.21605705,-2.42768666,-1
2.43693916e+04,5.59999601,-5.09434489e-11,2.45685688,3.68018696,1.39073168,-1.84513325,7.73222471e-05,6.22209190,-2.40624517,-1
2.54770377e+04,5.59999596,-4.91648212e-11,2.44748652,3.68094624,1.38452792,-1.84513586,7.66504699e-05,6.22785388,-2.38506561,-1
2.66356195e+04,5.59999590,-4.74410073e-11,2.43811790,3.68168619,1.37836372,-1.84513703,7.59652017e-05,6.23339519,-2.36322417,-1
2.78476494e+04,5.59999585,-4.58065811e-11,2.42891522,3.68239846,1.37233784,-1.84513918,7.52947910e-05,6.23864563,-2.34142816,-1
2.91143865e+04,5.59999579,-4.42617991e-11,2.42005488,3.68316260,1.36637940,-1.84516768,7.46603815e-05,6.24363923,-2.31930035,-1
3.04400236e+04,5.59999573,-4.27685662e-11,2.41118613,3.68391499,1.36044024,-1.84517023,7.40302960e-05,6.24865585,-2.29616679,-1
3.18253319e+04,5.59999568,-4.13544332e-11,2.40248041,3.68465267,1.35461201,-1.84516980,7.34280792e-05,6.25361751,-2.27297322,-1
3.32735888e+04,5.59999562,-4.00017436e-11,2.39374338,3.68535305,1.34884275,-1.84517070,7.28468967e-05,6.25866973,-2.24926678,-1
3.47888826e+04,5.59999556,-3.87106090e-11,2.38537131,3.68611917,1.34312447,-1.84517090,7.22836225e-05,6.26387740,-2.22507753,-1
3.63711741e+04,5.59999550,-3.74711354e-11,2.37695862,3.68685103,1.33745440,-1.84517058,7.17385956e-05,6.26928488,-2.20044595,-1
3.80281211e+04,5.59999544,-3.62811975e-11,2.36879505,3.68762057,1.33183354,-1.84518238,7.12006310e-05,6.27491493,-2.17535860,-1
3.97582691e+04,5.59999538,-3.51460964e-11,2.36070215,3.68840031,1.32622760,-1.84521079,7.07025214e-05,6.28078570,-2.14950913,-1
4.15679780e+04,5.59999531,-3.40822303e-11,2.35294179,3.68922003,1.32070800,-1.84519862,7.02619817e-05,6.28685874,-2.12357216,-1
4.34610676e+04,5.59999525,-3.30544653e-11,2.34515481,3.69000015,1.31525426,-1.84520364,6.98193716e-05,6.29321210,-2.09703602,-1
4.54393889e+04,5.59999519,-3.20701679e-11,2.33755017,3.69078912,1.30987399,-1.84520284,6.93921492e-05,6.29968873,-2.07018796,-1
4.75076541e+04,5.59999512,-3.11329735e-11,2.33024661,3.69161735,1.30456575,-1.84520995,6.89912348e-05,6.30631048,-2.04306058,-1
4.96729275e+04,5.59999506,-3.02612930e-11,2.32321927,3.69247711,1.29933256,-1.84522841,6.86632921e-05,6.31314573,-2.01551034,-1
5.19353438e+04,5.59999499,-2.94270677e-11,2.31627509,3.69332595,1.29416281,-1.84523025,6.83597439e-05,6.32018636,-1.98744417,-1
5.43000596e+04,5.59999492,-2.86236426e-11,2.30953573,3.69417762,1.28908977,-1.84523207,6.80575615e-05,6.32742352,-1.95894616,-1
5.67727572e+04,5.59999485,-2.78675152e-11,2.30308265,3.69505768,1.28410313,-1.84523224,6.78036119e-05,6.33488741,-1.92988715,-1
5.93616118e+04,5.59999478,-2.71751021e-11,2.29720957,3.69601131,1.27925932,-1.84530923,6.76258098e-05,6.34253187,-1.90077351,-1
6.20677490e+04,5.59999471,-2.65194172e-11,2.29146928,3.69694325,1.27452530,-1.84531345,6.74840217e-05,6.35038937,-1.87121631,-1
6.48968227e+04,5.59999463,-2.59042938e-11,2.28605964,3.69789338,1.26992021,-1.84531212,6.73846725e-05,6.35847013,-1.84121864,-1
6.78547913e+04,5.59999456,-2.53281277e-11,2.28097205,3.69884729,1.26546859,-1.84531016,6.73212507e-05,6.36677115,-1.81076586,-1
7.09486258e+04,5.59999448,-2.48082432e-11,2.27650159,3.69987300,1.26118195,-1.84531034,6.73516594e-05,6.37530862,-1.77980853,-1
7.41852253e+04,5.59999440,-2.43347279e-11,2.27248919,3.70091294,1.25709587,-1.84530413,6.74430722e-05,6.38408280,-1.74834471,-1
7.75691461e+04,5.59999432,-2.39100165e-11,2.26900120,3.70196877,1.25324020,-1.84530578,6.76003087e-05,6.39309664,-1.71634949,-1
8.11065419e+04,5.59999424,-2.35436130e-11,2.26632422,3.70309318,1.24965291,-1.84534481,6.78551616e-05,6.40235684,-1.68379282,-1
8.48039001e+04,5.59999415,-2.32474139e-11,2.26445494,3.70426907,1.24636648,-1.84540550,6.82428984e-05,6.41187967,-1.65063363,-1
8.86679365e+04,5.59999406,-2.30123478e-11,2.26344046,3.70547539,1.24344660,-1.84539843,6.87303208e-05,6.42167091,-1.61684139,-1
9.27034083e+04,5.59999397,-2.28553228e-11,2.26359811,3.70676133,1.24095355,-1.84539237,6.93692485e-05,6.43173915,-1.58237626,-1
9.69145598e+04,5.59999387,-2.28012615e-11,2.26516146,3.70816087,1.23893615,-1.84535985,7.02482251e-05,6.44208632,-1.54722269,-1
1.01308498e+05,5.59999377,-2.28394299e-11,2.26800951,3.70959524,1.23749143,-1.84530965,7.12976506e-05,6.45271672,-1.51135343,-1
1.05883772e+05,5.59999367,-2.29972978e-11,2.27255350,3.71114156,1.23667078,-1.84538684,7.26168017e-05,6.46365519,-1.47476498,-1
1.10639393e+05,5.59999356,-2.32931335e-11,2.27888614,3.71280349,1.23651324,-1.84537522,7.42865386e-05,6.47488182,-1.43747764,-1
1.15576380e+05,5.59999344,-2.37317547e-11,2.28705284,3.71458651,1.23703056,-1.84536527,7.63364703e-05,6.48641605,-1.39945586,-1
1.20690584e+05,5.59999332,-2.43206341e-11,2.29697196,3.71651835,1.23812642,-1.84535057,7.88580757e-05,6.49825242,-1.36070122,-1
1.25980703e+05,5.59999319,-2.50505994e-11,2.30844723,3.71863703,1.23962670,-1.84531941,8.19387768e-05,6.51045863,-1.32080440,-1
1.31461303e+05,5.59999305,-2.58690262e-11,2.32074178,3.72098951,1.24106902,-1.84527520,8.56532167e-05,6.52291861,-1.28046843,-1
1.37167781e+05,5.59999290,-2.66670304e-11,2.33258189,3.72354187,1.24188435,-1.84534611,8.99035709e-05,6.53575842,-1.23898859,-1
1.43124256e+05,5.59999274,-2.73404118e-11,2.34303227,3.72631056,1.24157216,-1.84533717,9.46489108e-05,6.54896288,-1.19620414,-1
1.49346802e+05,5.59999256,-2.78176651e-11,2.35156062,3.72930715,1.23984316,-1.84530249,9.98810903e-05,6.56250216,-1.15212247,-1
1.55833655e+05,5.59999238,-2.80868159e-11,2.35827964,3.73253193,1.23675312,-1.84538162,1.05652368e-04,6.57632560,-1.10682342,-1
1.62583251e+05,5.59999219,-2.81854874e-11,2.36365849,3.73597448,1.23255744,-1.84539305,1.12131466e-04,6.59036727,-1.06040154,-1
1.69581923e+05,5.59999199,-2.81659570e-11,2.36826414,3.73969886,1.22741150,-1.84550512,1.19705158e-04,6.60456749,-1.01299384,-1
1.76835234e+05,5.59999179,-2.80782755e-11,2.37259451,3.74365072,1.22167297,-1.84543810,1.28599067e-04,6.61893016,-9.64615441e-01,-1
1.84310251e+05,5.59999158,-2.79691159e-11,2.37722142,3.74798695,1.21531396,-1.84527182,1.39686745e-04,6.63339643,-9.15469871e-01,-1
1.92010298e+05,5.59999137,-2.78726077e-11,2.38252189,3.75264577,1.20864656,-1.84512104,1.53451305e-04,6.64797769,-8.65547695e-01,-1
1.99841959e+05,5.59999115,-2.78461897e-11,2.38941309,3.75784846,1.20168677,-1.84547118,1.71542490e-04,6.66271247,-8.14589340e-01,-1
2.07765469e+05,5.59999093,-2.78876467e-11,2.39749748,3.76369539,1.19403511,-1.84509921,1.95928982e-04,6.67737560,-7.63858989e-01,-1
2.15611292e+05,5.59999071,-2.78694615e-11,2.40643074,3.77056215,1.18476822,-1.84509988,2.30056102e-04,6.69162967,-7.14626788e-01,-1
2.23353147e+05,5.59999049,-2.78490959e-11,2.41648014,3.77822509,1.17446703,-1.84510245,2.76687423e-04,6.70551012,-6.66572487e-01,-1
2.30966024e+05,5.59999028,-2.78930109e-11,2.42801856,3.78648827,1.16370990,-1.84510987,3.39446286e-04,6.71933078,-6.18946997e-01,-1
2.38421240e+05,5.59999007,-2.79685606e-11,2.44075331,3.79529701,1.15245979,-1.84512647,4.22816360e-04,6.73296122,-5.72091374e-01,-1
2.45738594e+05,5.59998987,-2.81401625e-11,2.45483543,3.80451888,1.14105710,-1.84514875,5.27091393e-04,6.74623355,-5.26420071e-01,-1
2.52998927e+05,5.59998966,-2.83867342e-11,2.47008686,3.81396175,1.12979708,-1.84524769,6.53599850e-04,6.75976173,-4.80857234e-01,-1
2.60176750e+05,5.59998946,-2.87231476e-11,2.48645993,3.82360357,1.11869998,-1.84543147,8.17051882e-04,6.77335641,-4.35084029e-01,-1
2.67309016e+05,5.59998925,-2.91320307e-11,2.50372423,3.83340139,1.10773648,-1.84546667,1.03078750e-03,6.78698922,-3.89456832e-01,-1
2.74415567e+05,5.59998904,-2.96006592e-11,2.52171124,3.84333016,1.09687246,-1.84543501,1.31383960e-03,6.80070734,-3.44072897e-01,-1
