star_age,star_mass,star_mdot,log_L,log_Teff,log_R,log_surf_z,v_wind_Km_per_s,log_center_T,log_center_Rho,phase,x
3.77193246e+02,5.39999964,-8.28314495e-10,3.16382726,3.61307712,1.87843654,-1.84509848,1.09435500e-04,5.74027385,-3.90845305,-1,-1.0
3.94808319e+02,5.39999963,-8.18419880e-10,3.16078555,3.61337484,1.87632025,-1.84509848,1.09223474e-04,5.74233772,-3.90226335,-1,-0.9999785387457888
4.13186382e+02,5.39999961,-8.08282567e-10,3.15753240,3.61365251,1.87413833,-1.84509848,1.08985927e-04,5.74446608,-3.89587915,-1,-0.9999561479057423
4.32392936e+02,5.39999960,-7.97813310e-10,3.15423403,3.61395452,1.87188512,-1.84509848,1.08727351e-04,5.74666371,-3.88928710,-1,-0.9999327476769772
4.52101945e+02,5.39999958,-7.87507469e-10,3.15706968,3.61591940,1.86937319,-1.84509848,1.24047285e-04,5.74892536,-3.88250610,-1,-0.9999087352841588
4.72726751e+02,5.39999957,-7.87595457e-10,3.15905286,3.61770915,1.86678529,-1.84509848,1.38842071e-04,5.75129003,-3.87541600,-1,-0.9998836071337037
4.94624227e+02,5.39999955,-7.83798299e-10,3.15552138,3.61809694,1.86424397,-1.84509848,1.39904463e-04,5.75376953,-3.86797870,-1,-0.99985692843081
5.17586781e+02,5.39999953,-7.73014334e-10,3.15165768,3.61844206,1.86162188,-1.84509848,1.39737605e-04,5.75632961,-3.86030001,-1,-0.9998289520943661
5.41657696e+02,5.39999951,-7.62115063e-10,3.14772994,3.61881238,1.85891737,-1.84509848,1.39583422e-04,5.75896950,-3.85238044,-1,-0.999799625390701
5.66813367e+02,5.39999949,-7.50644493e-10,3.14363881,3.61918092,1.85613473,-1.84509848,1.39337796e-04,5.76168622,-3.84423012,-1,-0.9997689770788726
5.93104858e+02,5.39999947,-7.38659661e-10,3.13940024,3.61955244,1.85327240,-1.84509848,1.39011670e-04,5.76448087,-3.83584520,-1,-0.9997369449452594
6.20580722e+02,5.39999945,-7.26390952e-10,3.13514596,3.61996111,1.85032792,-1.84509848,1.38663266e-04,5.76735538,-3.82722011,-1,-0.9997034698355068
6.49282715e+02,5.39999943,-7.14074744e-10,3.13069588,3.62036140,1.84730228,-1.84509848,1.38309776e-04,5.77030953,-3.81835532,-1,-0.9996685008763581
6.79462779e+02,5.39999941,-7.01485116e-10,3.12606418,3.62076320,1.84418285,-1.84509848,1.37912407e-04,5.77335552,-3.80921506,-1,-0.9996317311152783
7.10966385e+02,5.39999939,-6.88882289e-10,3.12133391,3.62118092,1.84098227,-1.84509848,1.37524473e-04,5.77648069,-3.79983571,-1,-0.9995933488220607
7.43840855e+02,5.39999937,-6.76186409e-10,3.11653141,3.62162165,1.83769955,-1.84509848,1.37133833e-04,5.77968601,-3.79021568,-1,-0.9995532963421347
7.78324784e+02,5.39999934,-6.63346846e-10,3.11162437,3.62208258,1.83432417,-1.84509848,1.36724346e-04,5.78298167,-3.78032455,-1,-0.99951128298423
8.14380125e+02,5.39999932,-6.50476654e-10,3.10662102,3.62256346,1.83086074,-1.84509848,1.36318288e-04,5.78636322,-3.77017602,-1,-0.9994673551027575
8.52008055e+02,5.39999930,-6.37323983e-10,3.10134452,3.62301719,1.82731504,-1.84509848,1.35836568e-04,5.78982581,-3.75978278,-1,-0.9994215112637244
8.91500495e+02,5.39999927,-6.24402601e-10,3.09610221,3.62352776,1.82367273,-1.84509848,1.35424874e-04,5.79338201,-3.74910634,-1,-0.9993733958063398
9.32660783e+02,5.39999925,-6.11480982e-10,3.09061977,3.62401871,1.81994962,-1.84509848,1.34997268e-04,5.79701790,-3.73819065,-1,-0.99932324833297
9.75858435e+02,5.39999922,-5.98317605e-10,3.08511739,3.62455289,1.81613007,-1.84509848,1.34525183e-04,5.80074760,-3.72699299,-1,-0.9992706186452647
1.02092658e+03,5.39999919,-5.85347191e-10,3.07946702,3.62509269,1.81222529,-1.84509848,1.34087870e-04,5.80456091,-3.71554155,-1,-0.9992157100498436
1.06808390e+03,5.39999917,-5.72179990e-10,3.07354643,3.62560911,1.80823215,-1.84509848,1.33579926e-04,5.80846166,-3.70382977,-1,-0.9991582561163608
1.11745909e+03,5.39999914,-5.59011372e-10,3.06754763,3.62615141,1.80414815,-1.84509848,1.33063315e-04,5.81245101,-3.69185162,-1,-0.9990981000497742
1.16900606e+03,5.39999911,-5.46000930e-10,3.06138646,3.62669530,1.79997978,-1.84509848,1.32563677e-04,5.81652320,-3.67962281,-1,-0.9990352980036524
1.22292167e+03,5.39999908,-5.32701686e-10,3.05522700,3.62728438,1.79572189,-1.84509848,1.31986502e-04,5.82068215,-3.66713316,-1,-0.9989696101343963
1.27938955e+03,5.39999905,-5.19904447e-10,3.04877244,3.62784438,1.79137461,-1.84509848,1.31493204e-04,5.82492926,-3.65437648,-1,-0.998900812717125
1.33840574e+03,5.39999902,-5.06958469e-10,3.04232587,3.62845001,1.78694006,-1.84509848,1.30949625e-04,5.82926140,-3.64136430,-1,-0.9988289105764888
1.40007636e+03,5.39999899,-4.94111828e-10,3.03558506,3.62902359,1.78242251,-1.84509848,1.30384043e-04,5.83367538,-3.62810346,-1,-0.9987537744216072
1.46456751e+03,5.39999896,-4.81211651e-10,3.02890163,3.62965536,1.77781725,-1.84509848,1.29787904e-04,5.83817491,-3.61458445,-1,-0.998675201885205
1.53199558e+03,5.39999893,-4.68738767e-10,3.02205145,3.63028842,1.77312604,-1.84509848,1.29264992e-04,5.84275902,-3.60081176,-1,-0.998593051163988
1.60250389e+03,5.39999890,-4.56118653e-10,3.01498095,3.63090454,1.76835855,-1.84509848,1.28646267e-04,5.84741807,-3.58681445,-1,-0.9985071476446039
1.67623793e+03,5.39999886,-4.43909213e-10,3.00784647,3.63152039,1.76355960,-1.84509848,1.28067101e-04,5.85210875,-3.57272098,-1,-0.9984173140698889
1.75334299e+03,5.39999883,-4.31478555e-10,3.00061257,3.63218311,1.75861722,-1.84509848,1.27419120e-04,5.85693914,-3.55820700,-1,-0.9983233734263487
1.83398467e+03,5.39999880,-4.19393010e-10,2.99333468,3.63287669,1.75359112,-1.84509848,1.26825872e-04,5.86185148,-3.54344652,-1,-0.9982251239558813
1.91827254e+03,5.39999876,-4.07391763e-10,2.98571016,3.63352159,1.74848904,-1.84509848,1.26181182e-04,5.86683996,-3.52845456,-1,-0.9981224321643124
2.00638573e+03,5.39999873,-3.95385074e-10,2.97793631,3.63416734,1.74331063,-1.84509848,1.25468497e-04,5.87190389,-3.51323514,-1,-0.998015079809318
2.09851959e+03,5.39999869,-3.83730066e-10,2.97023794,3.63487180,1.73805253,-1.84509848,1.24815358e-04,5.87704602,-3.49778176,-1,-0.997902828887002
2.19480366e+03,5.39999866,-3.72196572e-10,2.96230949,3.63555552,1.73272086,-1.84509848,1.24122788e-04,5.88226112,-3.48210744,-1,-0.9977855215728196
2.29543536e+03,5.39999862,-3.60931041e-10,2.95432627,3.63626291,1.72731448,-1.84509848,1.23450248e-04,5.88754934,-3.46621236,-1,-0.9976629173408984
2.40064573e+03,5.39999858,-3.49731387e-10,2.94613819,3.63695493,1.72183639,-1.84509848,1.22714912e-04,5.89290852,-3.45010190,-1,-0.9975347347045721
2.51075762e+03,5.39999854,-3.38713893e-10,2.93802961,3.63770562,1.71628072,-1.84509848,1.21971351e-04,5.89834369,-3.43375929,-1,-0.9974005803208258
2.62573930e+03,5.39999851,-3.28015954e-10,2.92973219,3.63844354,1.71065617,-1.84509848,1.21253717e-04,5.90384761,-3.41721044,-1,-0.997260492847779
2.74595572e+03,5.39999847,-3.17462738e-10,2.92116812,3.63914777,1.70496567,-1.84509848,1.20488988e-04,5.90941794,-3.40046174,-1,-0.9971140276500489
2.87164408e+03,5.39999843,-3.07092255e-10,2.91262333,3.63989078,1.69920726,-1.84509848,1.19705674e-04,5.91505537,-3.38351498,-1,-0.9969608957359577
3.00307772e+03,5.39999839,-2.97205357e-10,2.90423111,3.64069979,1.69339313,-1.84509848,1.19018085e-04,5.92072839,-3.36644098,-1,-0.9968007640828026
3.14048894e+03,5.39999835,-2.87558243e-10,2.89551356,3.64140885,1.68761622,-1.84509848,1.18260621e-04,5.92635222,-3.34949498,-1,-0.9966333496688012
3.28412975e+03,5.39999831,-2.78008758e-10,2.88683833,3.64218127,1.68173377,-1.84509848,1.17473976e-04,5.93206701,-3.33227320,-1,-0.9964583454585714
3.43426281e+03,5.39999827,-2.68773375e-10,2.87805469,3.64294806,1.67580838,-1.84509848,1.16705180e-04,5.93787425,-3.31482035,-1,-0.9962754314413453
3.59120932e+03,5.39999823,-2.59658024e-10,2.86901579,3.64369256,1.66979994,-1.84509848,1.15890134e-04,5.94375317,-3.29715433,-1,-0.9960842162843793
3.75512419e+03,5.39999818,-2.50788985e-10,2.86010993,3.64452307,1.66368597,-1.84509848,1.15107976e-04,5.94974488,-3.27915154,-1,-0.9958845112536899
3.92663797e+03,5.39999814,-2.42025479e-10,2.85089388,3.64529529,1.65753350,-1.84509848,1.14239410e-04,5.95577723,-3.26103196,-1,-0.9956755481211899
4.10577489e+03,5.39999810,-2.33542341e-10,2.84153745,3.64605969,1.65132651,-1.84509848,1.13385222e-04,5.96186513,-3.24274235,-1,-0.9954572973663549
4.29285742e+03,5.39999806,-2.25247904e-10,2.83210260,3.64685356,1.64502133,-1.84509848,1.12526678e-04,5.96805125,-3.22415993,-1,-0.9952293661091414
4.48876811e+03,5.39999802,-2.17289781e-10,2.82280586,3.64768912,1.63870185,-1.84509848,1.11688786e-04,5.97425112,-3.20553619,-1,-0.994990679098263
4.69335050e+03,5.39999797,-2.09425564e-10,2.81326125,3.64848697,1.63233385,-1.84509848,1.10772406e-04,5.98050059,-3.18676639,-1,-0.9947414269561393
4.90718979e+03,5.39999793,-2.01695153e-10,2.80374576,3.64931697,1.62591608,-1.84509848,1.09794519e-04,5.98679929,-3.16784844,-1,-0.9944808967066748
5.13063355e+03,5.39999788,-1.94429913e-10,2.79405085,3.65014201,1.61941855,-1.84509848,1.08952850e-04,5.99317829,-3.14869039,-1,-0.994208664889341
5.36419501e+03,5.39999784,-1.87387499e-10,2.78432448,3.65097089,1.61289761,-1.84509848,1.08093603e-04,5.99958133,-3.12946258,-1,-0.9939241062124062
5.60834378e+03,5.39999780,-1.80591274e-10,2.77455216,3.65180266,1.60634790,-1.84509848,1.07237376e-04,6.00601400,-3.11014848,-1,-0.9936266485283926
5.86355929e+03,5.39999775,-1.73830606e-10,2.76453848,3.65260275,1.59974090,-1.84509848,1.06275743e-04,6.01250421,-3.09066247,-1,-0.993315707725664
6.13029138e+03,5.39999771,-1.67297167e-10,2.75474332,3.65347721,1.59309439,-1.84509848,1.05308528e-04,6.01903409,-3.07105664,-1,-0.9929907357434439
6.40891371e+03,5.39999766,-1.61067354e-10,2.74479965,3.65433391,1.58640917,-1.84509848,1.04397816e-04,6.02559392,-3.05132188,-1,-0.9926512773345553
6.70034815e+03,5.39999761,-1.54987737e-10,2.73461122,3.65514063,1.57970150,-1.84510005,1.03442711e-04,6.03213237,-3.03146087,-1,-0.9922962093423461
7.00481435e+03,5.39999757,-1.49007067e-10,2.72437766,3.65595299,1.57296000,-1.84510088,1.02414407e-04,6.03869999,-3.01149487,-1,-0.9919252641571116
7.32289701e+03,5.39999752,-1.43249038e-10,2.71409281,3.65676802,1.56618751,-1.84510476,1.01396774e-04,6.04522809,-2.99133958,-1,-0.9915377294119293
7.65534835e+03,5.39999748,-1.37765285e-10,2.70399096,3.65767265,1.55932733,-1.84510947,1.00443340e-04,6.05170547,-2.97071928,-1,-0.9911326886425507
8.00302411e+03,5.39999743,-1.32408994e-10,2.69362077,3.65849830,1.55249094,-1.84511410,9.94290530e-05,6.05818710,-2.95018616,-1,-0.9907090992615462
8.36631786e+03,5.39999738,-1.27281759e-10,2.68323311,3.65933462,1.54562446,-1.84511834,9.84466194e-05,6.06465114,-2.92947251,-1,-0.9902664817644699
8.74593643e+03,5.39999734,-1.22269850e-10,2.67282323,3.66017803,1.53873271,-1.84511919,9.74123772e-05,6.07109515,-2.90859354,-1,-0.9898039749877993
9.14273530e+03,5.39999729,-1.17461871e-10,2.66249681,3.66105616,1.53181324,-1.84511609,9.63941382e-05,6.07752677,-2.88752876,-1,-0.9893205366608748
9.55712636e+03,5.39999724,-1.12884025e-10,2.65196071,3.66191297,1.52483157,-1.84511361,9.54482208e-05,6.08392934,-2.86603374,-1,-0.9888156649591514
9.99046501e+03,5.39999719,-1.08431802e-10,2.64140208,3.66275354,1.51787111,-1.84511163,9.44534598e-05,6.09033642,-2.84461571,-1,-0.9882877085364236
1.04435146e+04,5.39999715,-1.04136686e-10,2.63088046,3.66361172,1.51089394,-1.84510871,9.34520353e-05,6.09673796,-2.82304970,-1,-0.9877357373682512
1.09169966e+04,5.39999710,-9.99942375e-11,2.62034462,3.66447435,1.50390076,-1.84510701,9.24466924e-05,6.10313402,-2.80133576,-1,-0.9871588724545259
1.14118924e+04,5.39999705,-9.60561148e-11,2.60985926,3.66535702,1.49689274,-1.84510824,9.14893994e-05,6.10952899,-2.77946816,-1,-0.98655591812264
1.19288157e+04,5.39999700,-9.22032818e-11,2.59917890,3.66620479,1.48985703,-1.84510829,9.04897551e-05,6.11591494,-2.75730907,-1,-0.9859261266736365
1.24693643e+04,5.39999695,-8.85602931e-11,2.58866207,3.66708936,1.48282946,-1.84510791,8.95444376e-05,6.12231280,-2.73515297,-1,-0.985267551434233
1.30339701e+04,5.39999690,-8.50321647e-11,2.57790495,3.66791768,1.47579426,-1.84510756,8.85933293e-05,6.12870898,-2.71281213,-1,-0.98457966620078
1.36244648e+04,5.39999685,-8.16182099e-11,2.56738354,3.66879992,1.46876908,-1.84510809,8.76068589e-05,6.13511711,-2.69048048,-1,-0.9838602393288594
1.42415123e+04,5.39999681,-7.83911780e-11,2.55674835,3.66965149,1.46174834,-1.84510882,8.66919125e-05,6.14153682,-2.66807518,-1,-0.9831084619585436
1.48864073e+04,5.39999676,-7.52370445e-11,2.54603826,3.67047874,1.45473880,-1.84510870,8.57254878e-05,6.14796699,-2.64562930,-1,-0.9823227566972309
1.55607672e+04,5.39999671,-7.22116215e-11,2.53537266,3.67131047,1.44774254,-1.84511070,8.47648909e-05,6.15441986,-2.62314051,-1,-0.9815011529920568
1.62658123e+04,5.39999666,-6.93890437e-11,2.52477542,3.67214877,1.44076732,-1.84511365,8.39062788e-05,6.16091289,-2.60066412,-1,-0.980642164095364
1.70033265e+04,5.39999661,-6.66595910e-11,2.51433599,3.67300286,1.43383943,-1.84511367,8.30147065e-05,6.16741470,-2.57847595,-1,-0.9797436165996743
1.77744617e+04,5.39999656,-6.40518508e-11,2.50390893,3.67383333,1.42696497,-1.84511833,8.21378852e-05,6.17395591,-2.55646247,-1,-0.9788041070921989
1.85804110e+04,5.39999651,-6.15461418e-11,2.49349082,3.67466747,1.42008763,-1.84513249,8.12719549e-05,6.18048339,-2.53421283,-1,-0.9778221819642924
1.94232836e+04,5.39999646,-5.91637170e-11,2.48308470,3.67546197,1.41329557,-1.84513428,8.04308007e-05,6.18700704,-2.51245146,-1,-0.976795271480514
2.03047121e+04,5.39999641,-5.68641970e-11,2.47286697,3.67628886,1.40653292,-1.84513238,7.95713088e-05,6.19353290,-2.49060788,-1,-0.9757213865691394
2.12265773e+04,5.39999636,-5.47337380e-11,2.46275216,3.67709894,1.39985534,-1.84513248,7.88120670e-05,6.20002865,-2.46909781,-1,-0.9745982357649603
2.21912428e+04,5.39999630,-5.26785830e-11,2.45275000,3.67787817,1.39329581,-1.84513189,7.80210219e-05,6.20637440,-2.44819577,-1,-0.9734229393853067
2.32011502e+04,5.39999625,-5.07427478e-11,2.44294730,3.67866659,1.38681762,-1.84513723,7.72729636e-05,6.21261695,-2.42732494,-1,-0.9721925227165178
2.42566527e+04,5.39999620,-4.88865226e-11,2.43319142,3.67944811,1.38037664,-1.84513849,7.65389643e-05,6.21869028,-2.40614334,-1,-0.970906555438777
2.53600933e+04,5.39999615,-4.71134677e-11,2.42352361,3.68020931,1.37402034,-1.84513791,7.58154479e-05,6.22452407,-2.38492343,-1,-0.9695621829673421
2.65147356e+04,5.39999609,-4.54379691e-11,2.41402370,3.68096720,1.36775459,-1.84513779,7.51273014e-05,6.23009530,-2.36356889,-1,-0.9681554291081182
2.77226321e+04,5.39999604,-4.38267784e-11,2.40454997,3.68168299,1.36158615,-1.84513876,7.44297866e-05,6.23539243,-2.34198482,-1,-0.9666837932058844
2.89845148e+04,5.39999599,-4.22848000e-11,2.39519713,3.68241513,1.35544546,-1.84513971,7.37537806e-05,6.24039082,-2.31987780,-1,-0.9651463834313484
3.03057365e+04,5.39999593,-4.08444987e-11,2.38620305,3.68318616,1.34940636,-1.84515224,7.31319311e-05,6.24534346,-2.29742713,-1,-0.9635366782218949
3.16865397e+04,5.39999588,-3.94427903e-11,2.37714234,3.68391936,1.34340961,-1.84515489,7.24928308e-05,6.25026933,-2.27434536,-1,-0.9618543821286125
3.31295285e+04,5.39999582,-3.81149863e-11,2.36817346,3.68461890,1.33752609,-1.84515633,7.18810543e-05,6.25518617,-2.25127386,-1,-0.9600963224566114
3.46412366e+04,5.39999577,-3.68532824e-11,2.35956520,3.68538717,1.33168541,-1.84519676,7.12932916e-05,6.26022954,-2.22769811,-1,-0.9582545388984524
3.62195280e+04,5.39999571,-3.56454692e-11,2.35086369,3.68611272,1.32588355,-1.84521309,7.07356727e-05,6.26544274,-2.20370103,-1,-0.95633163384125
3.78709024e+04,5.39999565,-3.44839269e-11,2.34244279,3.68688943,1.32011969,-1.84521490,7.01846640e-05,6.27084736,-2.17928712,-1,-0.9543196884013303
3.95972915e+04,5.39999559,-3.33739557e-11,2.33395350,3.68763129,1.31439133,-1.84521618,6.96646314e-05,6.27645820,-2.15445891,-1,-0.9522163490996721
4.14007277e+04,5.39999553,-3.23026692e-11,2.32556791,3.68838074,1.30869962,-1.84521405,6.91501982e-05,6.28226473,-2.12922976,-1,-0.9500191397698097
4.32876606e+04,5.39999547,-3.12715750e-11,2.31729029,3.68914876,1.30302477,-1.84521217,6.86507981e-05,6.28828964,-2.10324964,-1,-0.9477202025672047
4.52615533e+04,5.39999541,-3.03029840e-11,2.30945453,3.68998714,1.29743014,-1.84522393,6.82000092e-05,6.29450443,-2.07715376,-1,-0.9453153182377299
4.73235456e+04,5.39999535,-2.93785918e-11,2.30148208,3.69076645,1.29188528,-1.84522891,6.77817983e-05,6.30085945,-2.05071807,-1,-0.9428030981105834
4.94803380e+04,5.39999529,-2.84861488e-11,2.29365153,3.69156922,1.28636448,-1.84522784,6.73743662e-05,6.30736081,-2.02376431,-1,-0.9401753786582087
5.17368299e+04,5.39999523,-2.76294626e-11,2.28605962,3.69239059,1.28092578,-1.84522180,6.69738674e-05,6.31402251,-1.99671301,-1,-0.9374261907160796
5.40955631e+04,5.39999516,-2.68192774e-11,2.27860790,3.69321753,1.27554604,-1.84521261,6.66196230e-05,6.32085909,-1.96936177,-1,-0.9345524374922636
5.65613039e+04,5.39999510,-2.60518453e-11,2.27142574,3.69408545,1.27021912,-1.84524123,6.63071723e-05,6.32787948,-1.94164234,-1,-0.9315483119840905
5.91408676e+04,5.39999503,-2.53139215e-11,2.26429422,3.69493461,1.26495505,-1.84524591,6.60089187e-05,6.33509183,-1.91355065,-1,-0.9284055107978801
6.18387447e+04,5.39999497,-2.46130890e-11,2.25743833,3.69581876,1.25975881,-1.84525024,6.57476215e-05,6.34249799,-1.88506303,-1,-0.9251185629507966
6.46590486e+04,5.39999490,-2.39441697e-11,2.25080441,3.69672307,1.25463322,-1.84526731,6.55129369e-05,6.35010513,-1.85617383,-1,-0.921682456898291
6.76078590e+04,5.39999483,-2.33193235e-11,2.24442360,3.69764847,1.24959202,-1.84535647,6.53365866e-05,6.35790991,-1.82688733,-1,-0.9180897854620208
7.06912061e+04,5.39999476,-2.27244018e-11,2.23841123,3.69861980,1.24464318,-1.84535172,6.51978845e-05,6.36591647,-1.79716148,-1,-0.9143332017717719
7.39151977e+04,5.39999469,-2.21681306e-11,2.23261779,3.69959191,1.23980223,-1.84535181,6.51132181e-05,6.37412744,-1.76699853,-1,-0.9104052644136782
7.72881294e+04,5.39999461,-2.16454912e-11,2.22712174,3.70057310,1.23509182,-1.84535499,6.50679700e-05,6.38254942,-1.73638516,-1,-0.9062958664764353
8.08155937e+04,5.39999454,-2.11589446e-11,2.22216542,3.70161370,1.23053246,-1.84535867,6.50778280e-05,6.39118003,-1.70529315,-1,-0.9019981943598854
8.45040369e+04,5.39999446,-2.07234086e-11,2.21768396,3.70269119,1.22613674,-1.84535892,6.51920546e-05,6.40002848,-1.67370267,-1,-0.8975043942400319
8.83607886e+04,5.39999438,-2.03216720e-11,2.21374507,3.70380436,1.22194096,-1.84538184,6.53534546e-05,6.40909597,-1.64158730,-1,-0.892805536127833
9.23933481e+04,5.39999430,-1.99738570e-11,2.21041198,3.70495620,1.21797074,-1.84540851,6.56300643e-05,6.41839366,-1.60891221,-1,-0.8878924832809256
9.66094346e+04,5.39999422,-1.96651810e-11,2.20776948,3.70614039,1.21428111,-1.84541430,6.59687226e-05,6.42791997,-1.57563979,-1,-0.8827558310426555
1.01016186e+05,5.39999413,-1.94165656e-11,2.20601599,3.70738692,1.21091131,-1.84541436,6.64442698e-05,6.43767782,-1.54174970,-1,-0.8773868829809138
1.05620559e+05,5.39999404,-1.92281794e-11,2.20530175,3.70870255,1.20792293,-1.84545521,6.70527908e-05,6.44767782,-1.50720223,-1,-0.8717771634278921
1.10429763e+05,5.39999395,-1.91079402e-11,2.20565452,3.71006558,1.20537325,-1.84543761,6.78192346e-05,6.45794582,-1.47195618,-1,-0.8659178888397409
1.15446328e+05,5.39999385,-1.90677068e-11,2.20749073,3.71154485,1.20333282,-1.84537096,6.88023446e-05,6.46847403,-1.43601897,-1,-0.8598059768010107
1.20675719e+05,5.39999375,-1.91200714e-11,2.21075215,3.71309970,1.20185383,-1.84547017,7.00230192e-05,6.47928126,-1.39936346,-1,-0.8534347690506621
1.26119476e+05,5.39999365,-1.92708572e-11,2.21568216,3.71476441,1.20098941,-1.84546502,7.15371650e-05,6.49044525,-1.36155581,-1,-0.8468023893358131
1.31771235e+05,5.39999354,-1.95443985e-11,2.22268252,3.71658979,1.20083884,-1.84549741,7.34393583e-05,6.50179113,-1.32346703,-1,-0.8399165912105817
1.37639617e+05,5.39999342,-1.99340116e-11,2.23122314,3.71853490,1.20121893,-1.84546970,7.57787153e-05,6.51344178,-1.28457772,-1,-0.832766871313866
1.43722342e+05,5.39999330,-2.04229356e-11,2.24118445,3.72063704,1.20199530,-1.84541515,7.85835645e-05,6.52537679,-1.24489526,-1,-0.8253560074746085
