star_age,star_mass,star_mdot,log_L,log_Teff,log_R,log_surf_z,v_wind_Km_per_s,log_center_T,log_center_Rho,phase,x
1.78131623e+02,1.79999779e+01,-1.05360603e-07,4.08364874,3.60971028,2.34508096,-1.84509866,3.15641248e-03,5.73092981,-4.74258410,-1,-1.0
1.84969057e+02,1.79999771e+01,-1.04137498e-07,4.08095945,3.60997585,2.34320518,-1.84509866,3.14727873e-03,5.73272162,-4.73649623,-1,-0.9998901632784203
1.92040926e+02,1.79999764e+01,-1.02870308e-07,4.07825364,3.61024030,2.34132336,-1.84509867,3.13648105e-03,5.73451316,-4.73038524,-1,-0.9997765605867672
1.99365519e+02,1.79999757e+01,-1.01593804e-07,4.07549983,3.61050768,2.33941171,-1.84509868,3.12538700e-03,5.73633000,-4.72416300,-1,-0.9996588981300583
2.06958457e+02,1.79999749e+01,-1.00324762e-07,4.07268246,3.61078286,2.33745267,-1.84509871,3.11475940e-03,5.73819055,-4.71776527,-1,-0.9995369249721341
2.14833437e+02,1.79999741e+01,-9.90461935e-08,4.06980282,3.61107004,2.33543848,-1.84509873,3.10421312e-03,5.74010179,-4.71116539,-1,-0.9994104210840227
2.23020828e+02,1.79999733e+01,-9.77610687e-08,4.06674937,3.61136777,2.33331630,-1.84509874,3.09441415e-03,5.74211792,-4.70417004,-1,-0.9992788986173003
2.31541845e+02,1.79999725e+01,-9.64022692e-08,4.06371416,3.61166896,2.33119631,-1.84509875,3.08169799e-03,5.74412328,-4.69717625,-1,-0.9991420167736432
2.40378830e+02,1.79999717e+01,-9.50667258e-08,4.06058774,3.61197011,2.32903081,-1.84509876,3.06976534e-03,5.74617104,-4.69000222,-1,-0.9990000592116325
2.49547710e+02,1.79999708e+01,-9.37279752e-08,4.05741470,3.61228525,2.32681400,-1.84509876,3.05792194e-03,5.74826631,-4.68262790,-1,-0.998852770079517
2.59060882e+02,1.79999699e+01,-9.23808606e-08,4.05415765,3.61260538,2.32454522,-1.84509877,3.04591234e-03,5.75040957,-4.67505047,-1,-0.9986999502315589
2.68933055e+02,1.79999690e+01,-9.10210927e-08,4.05083169,3.61293451,2.32222398,-1.84509877,3.03361595e-03,5.75260152,-4.66726459,-1,-0.9985413633819912
2.79178025e+02,1.79999681e+01,-8.96566264e-08,4.04741745,3.61326770,2.31985049,-1.84509878,3.02120956e-03,5.75484216,-4.65926728,-1,-0.998376787911503
2.89808874e+02,1.79999672e+01,-8.82749789e-08,4.04393658,3.61361071,2.31742402,-1.84509878,3.00829452e-03,5.75713189,-4.65105510,-1,-0.9982060136704984
3.00838743e+02,1.79999662e+01,-8.68794867e-08,4.04038695,3.61396269,2.31494524,-1.84509879,2.99494304e-03,5.75947104,-4.64262435,-1,-0.9980288295616042
3.12281951e+02,1.79999652e+01,-8.54848172e-08,4.03673955,3.61431635,2.31241423,-1.84509879,2.98155427e-03,5.76186026,-4.63397244,-1,-0.9978450055640236
3.24152617e+02,1.79999642e+01,-8.40814151e-08,4.03305027,3.61468607,2.30983015,-1.84509880,2.96790451e-03,5.76430016,-4.62509324,-1,-0.997654314869765
3.36508517e+02,1.79999632e+01,-8.26823339e-08,4.02927346,3.61506244,2.30718900,-1.84509880,2.95430800e-03,5.76679535,-4.61596424,-1,-0.9974558293636283
3.49327879e+02,1.79999622e+01,-8.12776396e-08,4.02540402,3.61544160,2.30449596,-1.84509881,2.94036891e-03,5.76934167,-4.60660004,-1,-0.9972498987916004
3.62623623e+02,1.79999611e+01,-7.98619472e-08,4.02147933,3.61583269,2.30175145,-1.84509881,2.92594017e-03,5.77193889,-4.59699871,-1,-0.9970363156064578
3.76405973e+02,1.79999600e+01,-7.84461128e-08,4.01741926,3.61623819,2.29891040,-1.84509882,2.91192801e-03,5.77463479,-4.58699147,-1,-0.9968149155695926
3.90687086e+02,1.79999589e+01,-7.69932052e-08,4.01323576,3.61665821,2.29597861,-1.84509882,2.89687830e-03,5.77742314,-4.57659834,-1,-0.9965855033906336
4.05541689e+02,1.79999578e+01,-7.55391823e-08,4.00909340,3.61707466,2.29307454,-1.84509883,2.88039935e-03,5.78018098,-4.56623785,-1,-0.9963468786530657
4.20972146e+02,1.79999567e+01,-7.41464795e-08,4.00487986,3.61749422,2.29012864,-1.84509884,2.86578331e-03,5.78298551,-4.55564412,-1,-0.9960990033815302
4.36954270e+02,1.79999555e+01,-7.27494396e-08,4.00060641,3.61792307,2.28713422,-1.84509884,2.85073134e-03,5.78584308,-4.54479983,-1,-0.9958422661166383
4.53516012e+02,1.79999543e+01,-7.13491164e-08,3.99615675,3.61836683,2.28402187,-1.84509885,2.83611468e-03,5.78882990,-4.53343983,-1,-0.9955762178527825
4.70765722e+02,1.79999531e+01,-6.99188031e-08,3.99172709,3.61882048,2.28089973,-1.84509886,2.81931209e-03,5.79182962,-4.52194854,-1,-0.9952991180526821
4.88616681e+02,1.79999519e+01,-6.85124444e-08,3.98721932,3.61928242,2.27772197,-1.84509887,2.80318509e-03,5.79489396,-4.51015987,-1,-0.9950123597726588
5.07155131e+02,1.79999506e+01,-6.71406552e-08,3.98268556,3.61973986,2.27454022,-1.84509888,2.78739816e-03,5.79796960,-4.49824529,-1,-0.9947145576189315
5.26409572e+02,1.79999494e+01,-6.57846899e-08,3.97811209,3.62020945,2.27131429,-1.84509894,2.77174261e-03,5.80110297,-4.48604644,-1,-0.9944052537667423
5.46334301e+02,1.79999481e+01,-6.44279402e-08,3.97350057,3.62068899,2.26804947,-1.84509896,2.75554053e-03,5.80428865,-4.47359191,-1,-0.9940851823902985
5.67083417e+02,1.79999468e+01,-6.30970277e-08,3.96875116,3.62117345,2.26470582,-1.84509897,2.74015583e-03,5.80757835,-4.46069317,-1,-0.9937518680391668
5.88524178e+02,1.79999454e+01,-6.17421535e-08,3.96387315,3.62167816,2.26125740,-1.84509898,2.72400375e-03,5.81100024,-4.44728326,-1,-0.9934074430843646
6.10851679e+02,1.79999441e+01,-6.03787485e-08,3.95899983,3.62218772,2.25780163,-1.84509898,2.70626936e-03,5.81445067,-4.43367691,-1,-0.9930487735146245
6.33948542e+02,1.79999427e+01,-5.90778228e-08,3.95418736,3.62269195,2.25438693,-1.84509899,2.68969512e-03,5.81787672,-4.42008278,-1,-0.9926777448932594
6.57989250e+02,1.79999413e+01,-5.77962940e-08,3.94923310,3.62321181,2.25087008,-1.84509900,2.67395550e-03,5.82144699,-4.40589652,-1,-0.992291554320718
6.82873062e+02,1.79999399e+01,-5.65245974e-08,3.94433498,3.62372939,2.24738586,-1.84509900,2.65716676e-03,5.82500991,-4.39167289,-1,-0.991891820103103
7.08727937e+02,1.79999385e+01,-5.52788099e-08,3.93933762,3.62426215,2.24382166,-1.84509901,2.64128776e-03,5.82869608,-4.37692267,-1,-0.9914764867036359
7.35529735e+02,1.79999370e+01,-5.40459996e-08,3.93426969,3.62480343,2.24020514,-1.84509903,2.62545359e-03,5.83247839,-4.36174889,-1,-0.9910459419079186
7.63315973e+02,1.79999355e+01,-5.28073589e-08,3.92923920,3.62534294,2.23661088,-1.84509904,2.60785653e-03,5.83627662,-4.34645517,-1,-0.9905995830418656
7.92199491e+02,1.79999340e+01,-5.16210281e-08,3.92413004,3.62590165,2.23293887,-1.84509905,2.59243374e-03,5.84021412,-4.33057237,-1,-0.9901355974407166
8.22137210e+02,1.79999325e+01,-5.04444070e-08,3.91912404,3.62645290,2.22933338,-1.84509907,2.57553988e-03,5.84412853,-4.31473266,-1,-0.9896546771266729
8.53180471e+02,1.79999310e+01,-4.93357325e-08,3.91405384,3.62701009,2.22568388,-1.84509908,2.56138569e-03,5.84815313,-4.29841641,-1,-0.9891559973565454
8.85458917e+02,1.79999294e+01,-4.82104868e-08,3.90909878,3.62757313,2.22208029,-1.84509916,2.54462339e-03,5.85218757,-4.28199988,-1,-0.988637475541735
9.18902488e+02,1.79999278e+01,-4.71507575e-08,3.90410077,3.62813245,2.21846265,-1.84509925,2.53028061e-03,5.85630914,-4.26520483,-1,-0.9881002371279446
9.53554603e+02,1.79999262e+01,-4.60834748e-08,3.89902546,3.62871858,2.21475272,-1.84509926,2.51547178e-03,5.86062327,-4.24764974,-1,-0.9875435846312036
9.89598022e+02,1.79999246e+01,-4.50398885e-08,3.89405528,3.62929468,2.21111543,-1.84509925,2.49982041e-03,5.86493705,-4.23003106,-1,-0.9869645821900127
1.02696963e+03,1.79999229e+01,-4.40341875e-08,3.88919589,3.62988009,2.20751492,-1.84509925,2.48473484e-03,5.86929654,-4.21219166,-1,-0.9863642436854099
1.06571566e+03,1.79999213e+01,-4.30837561e-08,3.88436744,3.63045352,2.20395383,-1.84509926,2.47115909e-03,5.87371125,-4.19410309,-1,-0.985741826429254
1.10593843e+03,1.79999196e+01,-4.21599275e-08,3.87958348,3.63105398,2.20036093,-1.84509927,2.45844346e-03,5.87829396,-4.17537525,-1,-0.9850956867824724
1.14771142e+03,1.79999178e+01,-4.12460286e-08,3.87489974,3.63164370,2.19683963,-1.84509928,2.44435801e-03,5.88291267,-4.15648989,-1,-0.9844246443603912
1.19100078e+03,1.79999161e+01,-4.03782459e-08,3.87023743,3.63224640,2.19330306,-1.84509930,2.43216157e-03,5.88770030,-4.13697148,-1,-0.9837292429303106
1.23588656e+03,1.79999143e+01,-3.95329767e-08,3.86572035,3.63286561,2.18980612,-1.84509932,2.41993754e-03,5.89259241,-4.11705999,-1,-0.9830081965669021
1.28252728e+03,1.79999125e+01,-3.87151431e-08,3.86129007,3.63347395,2.18637428,-1.84509934,2.40759016e-03,5.89758242,-4.09679399,-1,-0.9822589588006706
1.33095485e+03,1.79999106e+01,-3.79548450e-08,3.85706551,3.63407335,2.18306322,-1.84509936,2.39657894e-03,5.90260498,-4.07643194,-1,-0.9814810170285279
1.38116719e+03,1.79999088e+01,-3.72379549e-08,3.85303694,3.63468860,2.17981843,-1.84509939,2.38679001e-03,5.90774370,-4.05565502,-1,-0.980674404663649
1.43321525e+03,1.79999068e+01,-3.65572592e-08,3.84914634,3.63529830,2.17665373,-1.84509965,2.37766427e-03,5.91299775,-4.03446402,-1,-0.9798383032438792
1.48735572e+03,1.79999049e+01,-3.59128486e-08,3.84551224,3.63592183,2.17358961,-1.84509963,2.36908856e-03,5.91838535,-4.01280898,-1,-0.9789685892942336
1.54347967e+03,1.79999029e+01,-3.53144049e-08,3.84203485,3.63654340,2.17060778,-1.84509959,2.36198760e-03,5.92394606,-3.99056775,-1,-0.9780670126691282
1.60164280e+03,1.79999009e+01,-3.47367341e-08,3.83882351,3.63717439,2.16774014,-1.84509957,2.35447704e-03,5.92965761,-3.96784281,-1,-0.977132678602282
1.66208696e+03,1.79998988e+01,-3.42324051e-08,3.83597747,3.63780791,2.16505008,-1.84509958,2.34951970e-03,5.93547314,-3.94483119,-1,-0.9761617020088647
1.72483748e+03,1.79998967e+01,-3.37780724e-08,3.83342454,3.63843328,2.16252286,-1.84509959,2.34580122e-03,5.94145494,-3.92132085,-1,-0.9751536759870824
1.78983335e+03,1.79998945e+01,-3.33653854e-08,3.83125466,3.63906668,2.16017113,-1.84509961,2.34278839e-03,5.94759922,-3.89733549,-1,-0.9741095806031974
1.85739367e+03,1.79998923e+01,-3.30219151e-08,3.82953686,3.63970542,2.15803474,-1.84509964,2.34208570e-03,5.95393277,-3.87279739,-1,-0.9730242898263252
1.92743782e+03,1.79998900e+01,-3.27328320e-08,3.82826169,3.64033755,2.15613289,-1.84509966,2.34255711e-03,5.96045305,-3.84772478,-1,-0.9718990987382893
2.00001237e+03,1.79998876e+01,-3.25103905e-08,3.82751070,3.64099146,2.15444957,-1.84509969,2.34540902e-03,5.96725843,-3.82179291,-1,-0.9707332592373713
2.07541630e+03,1.79998852e+01,-3.23627457e-08,3.82744695,3.64163989,2.15312084,-1.84509972,2.34987851e-03,5.97425722,-3.79538182,-1,-0.9695219685009018
2.15342986e+03,1.79998827e+01,-3.22947682e-08,3.82806118,3.64228894,2.15212987,-1.84509974,2.35657161e-03,5.98148589,-3.76838103,-1,-0.9682687565987235
2.23449472e+03,1.79998800e+01,-3.23411589e-08,3.82958288,3.64293075,2.15160709,-1.84509977,2.36670741e-03,5.98891998,-3.74094844,-1,-0.9669665285322129
2.31828939e+03,1.79998773e+01,-3.24924246e-08,3.83198457,3.64357173,2.15152598,-1.84509979,2.37989631e-03,5.99660089,-3.71291888,-1,-0.9656204487252781
2.40516002e+03,1.79998745e+01,-3.27861223e-08,3.83552253,3.64421163,2.15201517,-1.84509981,2.39744540e-03,6.00456887,-3.68421142,-1,-0.9642249566151151
2.49482453e+03,1.79998715e+01,-3.32378523e-08,3.84022615,3.64484610,2.15309803,-1.84509982,2.42005964e-03,6.01280537,-3.65488936,-1,-0.9627845835423444
2.58754136e+03,1.79998684e+01,-3.39125532e-08,3.84644922,3.64547724,2.15494729,-1.84509981,2.45021031e-03,6.02134823,-3.62489695,-1,-0.9612951779199342
2.68295099e+03,1.79998651e+01,-3.48441312e-08,3.85428614,3.64610227,2.15761568,-1.84509980,2.48908990e-03,6.03017260,-3.59432535,-1,-0.9597625150867239
2.78096803e+03,1.79998616e+01,-3.61001698e-08,3.86402207,3.64671587,2.16125644,-1.84509977,2.53868486e-03,6.03928934,-3.56320701,-1,-0.958187966749944
2.88124479e+03,1.79998578e+01,-3.77411861e-08,3.87588892,3.64732284,2.16597594,-1.84509973,2.60030818e-03,6.04868294,-3.53162742,-1,-0.9565771182109993
2.98338836e+03,1.79998538e+01,-3.98521315e-08,3.89011255,3.64791626,2.17190091,-1.84509967,2.67568125e-03,6.05834038,-3.49967944,-1,-0.9549362811865773
3.08684201e+03,1.79998495e+01,-4.25140202e-08,3.90679087,3.64850014,2.17907230,-1.84509958,2.76622056e-03,6.06823605,-3.46748533,-1,-0.9532743990022008
3.19100571e+03,1.79998449e+01,-4.58255756e-08,3.92599149,3.64909457,2.18748375,-1.84509949,2.87372089e-03,6.07833914,-3.43518437,-1,-0.9516011105557446
3.29544269e+03,1.79998398e+01,-4.98824983e-08,3.94755892,3.64970324,2.19705014,-1.84509938,2.99942471e-03,6.08863688,-3.40283376,-1,-0.949923432132102
3.39996644e+03,1.79998343e+01,-5.47613938e-08,3.97117811,3.65033079,2.20760462,-1.84509929,3.14352799e-03,6.09913776,-3.37041351,-1,-0.9482443598328721
3.50456352e+03,1.79998282e+01,-6.05318272e-08,3.99651470,3.65101291,2.21890869,-1.84509920,3.30619124e-03,6.10987091,-3.33785712,-1,-0.9465641095585725
3.60971324e+03,1.79998214e+01,-6.72522819e-08,4.02306473,3.65176293,2.23068366,-1.84509912,3.48779040e-03,6.12091270,-3.30495170,-1,-0.9448749816606185
3.71608346e+03,1.79998138e+01,-7.49307297e-08,4.05035574,3.65258813,2.24267877,-1.84509905,3.68642274e-03,6.13234192,-3.27143726,-1,-0.9431662476182121
3.82410392e+03,1.79998051e+01,-8.36030297e-08,4.07809509,3.65356573,2.25459324,-1.84509899,3.90324200e-03,6.14421466,-3.23712292,-1,-0.9414310040765667
3.92793873e+03,1.79997958e+01,-9.31806451e-08,4.10798150,3.65509075,2.26648640,-1.84509892,4.12981767e-03,6.15589138,-3.20385429,-1,-0.9397629989278153
4.02075849e+03,1.79997865e+01,-1.06050078e-07,4.14044759,3.65831758,2.27626579,-1.84509886,4.50812583e-03,6.16655212,-3.17403968,-1,-0.9382719398351483
4.12374002e+03,1.79997748e+01,-1.17290543e-07,4.16789680,3.66269452,2.28123651,-1.84509882,4.89084849e-03,6.17864970,-3.14067479,-1,-0.9366176417990053
4.23101106e+03,1.79997616e+01,-1.27168602e-07,4.19174332,3.66801382,2.28252117,-1.84509879,5.29830619e-03,6.19143556,-3.10579469,-1,-0.9348944369601665
4.33792209e+03,1.79997475e+01,-1.35676563e-07,4.21279924,3.67428389,2.28050900,-1.84509877,5.75187550e-03,6.20454771,-3.07023929,-1,-0.9331770153315402
4.44206426e+03,1.79997329e+01,-1.42994662e-07,4.23172517,3.68140406,2.27573161,-1.84509876,6.28108116e-03,6.21743049,-3.03569933,-1,-0.9315040727435764
4.54676129e+03,1.79997176e+01,-1.48371479e-07,4.24758053,3.68914531,2.26817679,-1.84509875,6.90852975e-03,6.22995794,-3.00283350,-1,-0.9298222168698193
4.65172678e+03,1.79997018e+01,-1.52133160e-07,4.26109741,3.69728683,2.25865219,-1.84509875,7.70495287e-03,6.24257119,-2.96997240,-1,-0.9281360484474838
4.75726755e+03,1.79996856e+01,-1.54644883e-07,4.27282065,3.70569914,2.24768920,-1.84509874,8.78407248e-03,6.25527610,-2.93712034,-1,-0.9264406387119319
4.86288272e+03,1.79996692e+01,-1.55990920e-07,4.28307608,3.71433022,2.23555476,-1.84509874,1.02454446e-02,6.26825355,-2.90356951,-1,-0.9247440338128019
4.96759370e+03,1.79996528e+01,-1.56983276e-07,4.29286636,3.72314439,2.22282156,-1.84509872,1.22188368e-02,6.28134336,-2.86982798,-1,-0.9230619538458738
5.07461094e+03,1.79996359e+01,-1.56990392e-07,4.30101442,3.73208474,2.20901488,-1.84509871,1.47963166e-02,6.29417773,-2.83752816,-1,-0.9213428260569834
5.18348042e+03,1.79996189e+01,-1.55648556e-07,4.30729205,3.74114072,2.19404175,-1.84509873,1.80957781e-02,6.30710394,-2.80538034,-1,-0.919593943835483
5.29363709e+03,1.79996019e+01,-1.53328979e-07,4.31225247,3.75028908,2.17822523,-1.84509873,2.22655852e-02,6.32018194,-2.77305702,-1,-0.9178243841595969
5.40679620e+03,1.79995848e+01,-1.50157623e-07,4.31569309,3.75946979,2.16158412,-1.84509879,2.74470120e-02,6.33312518,-2.74162105,-1,-0.9160065932077175
5.52234166e+03,1.79995677e+01,-1.46363772e-07,4.31809710,3.76867465,2.14437641,-1.84509889,3.39120564e-02,6.34609073,-2.71025646,-1,-0.9141504678659864
5.64091669e+03,1.79995506e+01,-1.42201423e-07,4.31961349,3.77787633,2.12673124,-1.84509891,4.20636552e-02,6.35890000,-2.67922626,-1,-0.9122456754312207
5.76342932e+03,1.79995334e+01,-1.37537093e-07,4.31996322,3.78703443,2.10858990,-1.84509924,5.22892406e-02,6.37142725,-2.64839410,-1,-0.9102776292853564
5.88974617e+03,1.79995164e+01,-1.32568524e-07,4.31948458,3.79614622,2.09012701,-1.84509972,6.52117835e-02,6.38365581,-2.61709041,-1,-0.9082484720482599
6.01994952e+03,1.79994995e+01,-1.27492484e-07,4.31838656,3.80520427,2.07146189,-1.84509999,8.12418583e-02,6.39553298,-2.58502911,-1,-0.9061568819718234
6.15588943e+03,1.79994826e+01,-1.22060875e-07,4.31603473,3.81413152,2.05243148,-1.84509982,1.00955144e-01,6.40699092,-2.55253696,-1,-0.903973139643015
6.29633826e+03,1.79994659e+01,-1.16717964e-07,4.31331959,3.82298174,2.03337348,-1.84510013,1.26157887e-01,6.41836867,-2.51897343,-1,-0.9017169659034368
6.44227993e+03,1.79994493e+01,-1.11388417e-07,4.31001096,3.83171877,2.01424510,-1.84509928,1.58327601e-01,6.42975437,-2.48469226,-1,-0.899372555036047
6.59495644e+03,1.79994327e+01,-1.06009365e-07,4.30587800,3.84029353,1.99502909,-1.84509858,1.99146171e-01,6.44117472,-2.44998851,-1,-0.8969199555198214
6.75293138e+03,1.79994164e+01,-1.00960270e-07,4.30183525,3.84878848,1.97601782,-1.84509850,2.52519431e-01,6.45281425,-2.41433951,-1,-0.8943822418831934
6.91729956e+03,1.79994003e+01,-9.61320278e-08,4.29766928,3.85716420,1.95718340,-1.84509836,3.22113784e-01,6.46459418,-2.37802210,-1,-0.8917418270692127
7.08820997e+03,1.79993843e+01,-9.15900809e-08,4.29356832,3.86542773,1.93860585,-1.84509863,4.12734047e-01,6.47650878,-2.34104998,-1,-0.8889963176985576
7.26682165e+03,1.79993684e+01,-8.72740494e-08,4.28940346,3.87353981,1.92029926,-1.84509867,5.27799474e-01,6.48847815,-2.30369369,-1,-0.8861270949218499
7.45544513e+03,1.79993524e+01,-8.31484772e-08,4.28477826,3.88141596,1.90223437,-1.84509870,6.67634000e-01,6.50035129,-2.26646217,-1,-0.8830970423237339
7.64723278e+03,1.79993368e+01,-7.96990511e-08,4.28230572,3.88939142,1.88504716,-1.84509873,8.45127287e-01,6.51254546,-2.22794635,-1,-0.8800161604146044
7.84322417e+03,1.79993215e+01,-7.69183267e-08,4.28131705,3.89740411,1.86852745,-1.84509879,1.05976202,6.52485801,-2.18885295,-1,-0.8768677495143397
8.04536936e+03,1.79993063e+01,-7.44802127e-08,4.28108965,3.90537303,1.85247592,-1.84509891,1.30032534,6.53714041,-2.14972431,-1,-0.8736204838072487
8.25068669e+03,1.79992913e+01,-7.24811945e-08,4.28213764,3.91340540,1.83693516,-1.84509893,1.56079594,6.54951106,-2.11016531,-1,-0.8703222607588523
8.46027308e+03,1.79992763e+01,-7.07536709e-08,4.28394178,3.92145818,1.82173169,-1.84509904,1.82755914,6.56190624,-2.07042122,-1,-0.8669554594171038
8.67574865e+03,1.79992612e+01,-6.91589738e-08,4.28602567,3.92948437,1.80672124,-1.84509904,2.08848083,6.57427770,-2.03067256,-1,-0.8634940541312454
8.89734919e+03,1.79992461e+01,-6.76637125e-08,4.28830279,3.93748218,1.79186419,-1.84509920,2.33575365,6.58664141,-1.99088881,-1,-0.8599342571644472
9.12227694e+03,1.79992311e+01,-6.64117593e-08,4.29115760,3.94553601,1.77718392,-1.84509930,2.56874242,6.59911582,-1.95068907,-1,-0.8563210118077403
9.35163269e+03,1.79992160e+01,-6.51527917e-08,4.29437280,3.95361310,1.76263736,-1.84509940,2.77197301,6.61166895,-1.91020237,-1,-0.8526366349412954
9.58468547e+03,1.79992010e+01,-6.40548477e-08,4.29791049,3.96173395,1.74816450,-1.84509944,2.95141042,6.62436217,-1.86924498,-1,-0.8488928688866284
9.82314335e+03,1.79991859e+01,-6.29944856e-08,4.30152121,3.96985551,1.73372673,-1.84509965,3.10579058,6.63715703,-1.82797050,-1,-0.8450622751618427
1.00672100e+04,1.79991706e+01,-6.19764699e-08,4.30524024,3.97797392,1.71934943,-1.84509997,3.23949253,6.65005964,-1.78637242,-1,-0.841141582006643
1.03207611e+04,1.79991551e+01,-6.09578489e-08,4.30862999,3.98600246,1.70498722,-1.84510048,3.35411740,6.66297036,-1.74480785,-1,-0.8370685303944567
1.05759932e+04,1.79991397e+01,-6.00681523e-08,4.31298155,3.99411719,1.69093355,-1.84510053,3.45232367,6.67607171,-1.70264467,-1,-0.8329684751535736
1.08386792e+04,1.79991240e+01,-5.85510513e-08,4.31746812,4.00219265,1.67702591,-1.84509988,3.49253711,6.68922903,-1.66038444,-1,-0.8287486802648955
1.11041589e+04,1.79991100e+01,-4.89326262e-08,4.32281294,4.01032267,1.66343827,-1.84509989,3.00915496,6.70250991,-1.61778367,-1,-0.8244840073051343
1.13766258e+04,1.79990983e+01,-3.95025064e-08,4.32847882,4.01842525,1.65006606,-1.84510001,2.49150660,6.71583094,-1.57518964,-1,-0.8201070917787872
