star_age,star_mass,star_mdot,log_L,log_Teff,log_R,log_surf_z,v_wind_Km_per_s,log_center_T,log_center_Rho,phase
8.58691317e+01,6.99966445e+01,-3.76377018e-05,5.82972049,3.93133225,2.57487289,-1.84509848,1.05578896e+02,6.50528759,-2.98994114,-1
8.84384843e+01,6.99965500e+01,-3.73120428e-05,5.82955117,3.93350508,2.57044257,-1.84509848,1.07075234e+02,6.50673126,-2.98587727,-1
9.10078369e+01,6.99964554e+01,-3.69863839e-05,5.82938184,3.93567792,2.56601224,-1.84509848,1.08571573e+02,6.50817492,-2.98181341,-1
9.36507920e+01,6.99963591e+01,-3.66418658e-05,5.82913977,3.93793238,2.56138228,-1.84509848,1.10027896e+02,6.50964998,-2.97765321,-1
9.63907013e+01,6.99962606e+01,-3.62725052e-05,5.82880187,3.94029437,2.55648935,-1.84509848,1.11431508e+02,6.51116637,-2.97336612,-1
9.91515743e+01,6.99961617e+01,-3.58978915e-05,5.82844430,3.94268947,2.55152037,-1.84509848,1.12825562e+02,6.51269123,-2.96905233,-1
1.02045581e+02,6.99960601e+01,-3.54899173e-05,5.82796180,3.94529480,2.54606845,-1.84509848,1.14158919e+02,6.51426982,-2.96456897,-1
1.04945328e+02,6.99959585e+01,-3.50801992e-05,5.82747339,3.94790810,2.54059765,-1.84509848,1.15485417e+02,6.51585063,-2.96007845,-1
1.07986511e+02,6.99958544e+01,-3.46275110e-05,5.82683922,3.95071747,2.53466183,-1.84509848,1.16642893e+02,6.51748617,-2.95541148,-1
1.11043424e+02,6.99957501e+01,-3.41705871e-05,5.82618614,3.95354309,2.52868404,-1.84509848,1.17775872e+02,6.51912760,-2.95072529,-1
1.14228698e+02,6.99956438e+01,-3.36790993e-05,5.82537876,3.95650136,2.52236382,-1.84509848,1.18708957e+02,6.52081708,-2.94588227,-1
1.17462576e+02,6.99955369e+01,-3.31784981e-05,5.82449537,3.95948014,2.51596455,-1.84509848,1.19564235e+02,6.52252452,-2.94098039,-1
1.20795903e+02,6.99954286e+01,-3.26592493e-05,5.82345642,3.96250091,2.50940355,-1.84509848,1.20260310e+02,6.52426872,-2.93595807,-1
1.24230019e+02,6.99953191e+01,-3.21284262e-05,5.82226102,3.96553298,2.50274171,-1.84509848,1.20813046e+02,6.52604941,-2.93081396,-1
1.27729686e+02,6.99952086e+01,-3.15987856e-05,5.82096759,3.96857001,2.49602092,-1.84509848,1.21307253e+02,6.52785377,-2.92559063,-1
1.31382342e+02,6.99950961e+01,-3.11375610e-05,5.81947350,3.97160067,2.48921256,-1.84509848,1.21926377e+02,6.52971280,-2.92018230,-1
1.35092920e+02,6.99949828e+01,-3.06726487e-05,5.81793409,3.97463118,2.48238184,-1.84509849,1.22485229e+02,6.53159177,-2.91470578,-1
1.38946839e+02,6.99948678e+01,-3.01986105e-05,5.81628254,3.97766131,2.47549579,-1.84509849,1.22894923e+02,6.53352008,-2.90906051,-1
1.42850089e+02,6.99947524e+01,-2.96848006e-05,5.81460095,3.98068891,2.46859981,-1.84509849,1.23099647e+02,6.53546515,-2.90335918,-1
1.46913184e+02,6.99946357e+01,-2.90421192e-05,5.81282202,3.98370827,2.46167162,-1.84509849,1.22640216e+02,6.53746458,-2.89747624,-1
1.51074630e+02,6.99945182e+01,-2.84324045e-05,5.81099324,3.98672747,2.45471883,-1.84509849,1.22243770e+02,6.53949660,-2.89148344,-1
1.55329152e+02,6.99943998e+01,-2.78538890e-05,5.80911730,3.98974653,2.44774274,-1.84509849,1.21906932e+02,6.54155947,-2.88538667,-1
1.59766411e+02,6.99942799e+01,-2.73841193e-05,5.80720315,3.99281114,2.44065645,-1.84509849,1.21949278e+02,6.54368171,-2.87908775,-1
1.64242782e+02,6.99941596e+01,-2.69237038e-05,5.80527990,3.99588364,2.43354981,-1.84509849,1.22015020e+02,6.54581653,-2.87274649,-1
1.68934577e+02,6.99940375e+01,-2.64665455e-05,5.80330327,3.99899329,2.42634221,-1.84509849,1.22009370e+02,6.54802033,-2.86617523,-1
1.73632471e+02,6.99939155e+01,-2.59913117e-05,5.80132406,4.00210257,2.41913405,-1.84509849,1.21914036e+02,6.55022611,-2.85959752,-1
1.78579924e+02,6.99937971e+01,-2.47765340e-05,5.79923938,4.00519690,2.41190305,-1.84509849,1.18149389e+02,6.55251314,-2.85275604,-1
1.83598114e+02,6.99936825e+01,-2.32649125e-05,5.79713471,4.00829163,2.40466124,-1.84509849,1.12822854e+02,6.55482255,-2.84584204,-1
1.88775334e+02,6.99935762e+01,-2.10859372e-05,5.79498514,4.01138728,2.39739516,-1.84509849,1.03984942e+02,6.55718223,-2.83876499,-1
1.94127870e+02,6.99934782e+01,-1.93028939e-05,5.79283267,4.01451623,2.39006102,-1.84509850,9.67402120e+01,6.55959602,-2.83151316,-1
1.99542171e+02,6.99933832e+01,-1.76593383e-05,5.79067918,4.01765692,2.38270291,-1.84509850,9.00567640e+01,6.56202887,-2.82419975,-1
2.05228207e+02,6.99933007e+01,-1.60766701e-05,5.78850592,4.02082410,2.37528191,-1.84509850,8.32117826e+01,6.56454423,-2.81662156,-1
2.10931640e+02,6.99932190e+01,-1.44979002e-05,5.78633139,4.02399297,2.36785690,-1.84509850,7.63564590e+01,6.56706487,-2.80902641,-1
2.16908698e+02,6.99931519e+01,-1.24986450e-05,5.78408031,4.02714043,2.36043645,-1.84509850,6.67842991e+01,6.56967016,-2.80116674,-1
2.22975351e+02,6.99930893e+01,-1.05156030e-05,5.78181149,4.03028350,2.35301590,-1.84509850,5.71429366e+01,6.57230268,-2.79322196,-1
2.29262728e+02,6.99930377e+01,-8.80343139e-06,5.77950993,4.03341970,2.34559271,-1.84509850,4.85621261e+01,6.57500158,-2.78506976,-1
2.35739048e+02,6.99929942e+01,-7.37783028e-06,5.77722323,4.03657459,2.33813959,-1.84509850,4.13028277e+01,6.57775479,-2.77674665,-1
2.42313370e+02,6.99929551e+01,-6.10087107e-06,5.77494424,4.03973917,2.33067094,-1.84509851,3.47289874e+01,6.58053617,-2.76833490,-1
2.49196863e+02,6.99929291e+01,-4.88139150e-06,5.77266497,4.04291777,2.32317410,-1.84509851,2.81296586e+01,6.58340395,-2.75965132,-1
2.56119469e+02,6.99929048e+01,-3.66918384e-06,5.77038567,4.04609815,2.31567369,-1.84509851,2.15271051e+01,6.58628267,-2.75093334,-1
2.63362619e+02,6.99928829e+01,-3.22014198e-06,5.76804063,4.04925510,2.30818726,-1.84509851,1.91930843e+01,6.58925252,-2.74193239,-1
2.70719869e+02,6.99928612e+01,-2.94908545e-06,5.76568075,4.05240595,2.30070562,-1.84509851,1.78746323e+01,6.59225416,-2.73283233,-1
2.78344542e+02,6.99928389e+01,-2.93557550e-06,5.76330069,4.05554633,2.29323485,-1.84509851,1.80778945e+01,6.59532915,-2.72350277,-1
2.86201302e+02,6.99928159e+01,-2.92364388e-06,5.76094358,4.05869794,2.28575307,-1.84509852,1.82952949e+01,6.59846462,-2.71398324,-1
2.94175174e+02,6.99927927e+01,-2.91250872e-06,5.75859805,4.06185522,2.27826573,-1.84509852,1.85198296e+01,6.60163060,-2.70436784,-1
3.02532679e+02,6.99927686e+01,-2.90187431e-06,5.75626406,4.06501536,2.27077846,-1.84509852,1.87532217e+01,6.60489337,-2.69444695,-1
3.10930444e+02,6.99927443e+01,-2.89129245e-06,5.75393129,4.06817580,2.26329120,-1.84509852,1.89875433e+01,6.60816630,-2.68449401,-1
3.19729390e+02,6.99927190e+01,-2.87753209e-06,5.75155654,4.07131078,2.25583387,-1.84509852,1.92044778e+01,6.61154357,-2.67421598,-1
3.28666436e+02,6.99926935e+01,-2.86353214e-06,5.74917809,4.07443895,2.24838830,-1.84509852,1.94201767e+01,6.61495583,-2.66382872,-1
3.37916427e+02,6.99926671e+01,-2.84991099e-06,5.74680282,4.07755381,2.24097094,-1.84509852,1.96381984e+01,6.61844637,-2.65319686,-1
3.47464070e+02,6.99926401e+01,-2.83816624e-06,5.74447055,4.08067238,2.23356767,-1.84509853,1.98687442e+01,6.62200671,-2.64234441,-1
3.57143761e+02,6.99926127e+01,-2.82725393e-06,5.74215735,4.08379258,2.22617066,-1.84509853,2.01048462e+01,6.62559802,-2.63139410,-1
3.67307954e+02,6.99925842e+01,-2.81709759e-06,5.73989631,4.08690505,2.21881521,-1.84509854,2.03463418e+01,6.62930021,-2.62009690,-1
3.77508820e+02,6.99925556e+01,-2.80699846e-06,5.73763921,4.09001693,2.21146290,-1.84509854,2.05882457e+01,6.63301079,-2.60877344,-1
3.88211920e+02,6.99925258e+01,-2.79446208e-06,5.73539333,4.09310218,2.20416945,-1.84509854,2.08127765e+01,6.63684049,-2.59707565,-1
3.99077820e+02,6.99924955e+01,-2.78201886e-06,5.73316232,4.09618031,2.19689768,-1.84509854,2.10379499e+01,6.64070780,-2.58526072,-1
4.10324002e+02,6.99924644e+01,-2.77052115e-06,5.73097536,4.09924304,2.18967875,-1.84509854,2.12697949e+01,6.64466212,-2.57317563,-1
4.21936651e+02,6.99924324e+01,-2.76099312e-06,5.72887343,4.10230290,2.18250807,-1.84509855,2.15162990e+01,6.64869512,-2.56084305,-1
4.33716702e+02,6.99924000e+01,-2.75236482e-06,5.72681034,4.10536144,2.17535944,-1.84509856,2.17694993e+01,6.65276406,-2.54839741,-1
4.46081432e+02,6.99923661e+01,-2.74508018e-06,5.72488037,4.10840696,2.16830342,-1.84509857,2.20323403e+01,6.65695663,-2.53556645,-1
4.58506672e+02,6.99923321e+01,-2.73793459e-06,5.72296416,4.11145112,2.16125699,-1.84509858,2.22961791e+01,6.66116200,-2.52269560,-1
4.71521718e+02,6.99922967e+01,-2.73065602e-06,5.72114638,4.11447489,2.15430057,-1.84509858,2.25583729e+01,6.66549750,-2.50941903,-1
4.84724770e+02,6.99922607e+01,-2.72374330e-06,5.71936871,4.11749321,2.14737509,-1.84509858,2.28230490e+01,6.66987370,-2.49601631,-1
4.98437599e+02,6.99922234e+01,-2.71863827e-06,5.71771730,4.12049888,2.14053804,-1.84509859,2.31004633e+01,6.67435862,-2.48227788,-1
5.12544917e+02,6.99921852e+01,-2.71516202e-06,5.71620310,4.12350132,2.13377606,-1.84509860,2.33887989e+01,6.67892351,-2.46829185,-1
5.26921220e+02,6.99921462e+01,-2.71279638e-06,5.71478246,4.12650156,2.12706527,-1.84509861,2.36845815e+01,6.68354292,-2.45413699,-1
5.41923772e+02,6.99921055e+01,-2.71259495e-06,5.71358755,4.12949414,2.12048264,-1.84509863,2.39945159e+01,6.68828797,-2.43959689,-1
5.57097401e+02,6.99920643e+01,-2.71298475e-06,5.71245431,4.13248464,2.11393503,-1.84509865,2.43083163e+01,6.69306733,-2.42495156,-1
5.72867155e+02,6.99920214e+01,-2.71685135e-06,5.71150341,4.13547146,2.10748594,-1.84509866,2.46520446e+01,6.69797201,-2.40992389,-1
5.88859027e+02,6.99919779e+01,-2.72201341e-06,5.71062044,4.13845691,2.10107356,-1.84509866,2.50069241e+01,6.70292337,-2.39475376,-1
6.05599334e+02,6.99919321e+01,-2.73043270e-06,5.71001434,4.14144358,2.09479716,-1.84509866,2.53899117e+01,6.70802735,-2.37911854,-1
6.22658165e+02,6.99918853e+01,-2.73958328e-06,5.70955193,4.14443261,2.08858790,-1.84509868,2.57782532e+01,6.71319389,-2.36329375,-1
6.40212109e+02,6.99918369e+01,-2.74985578e-06,5.70931345,4.14742535,2.08248318,-1.84509871,2.61747676e+01,6.71845762,-2.34717450,-1
6.58296031e+02,6.99917868e+01,-2.76272893e-06,5.70931854,4.15042368,2.07648907,-1.84509874,2.65942262e+01,6.72382517,-2.33074305,-1
6.76813920e+02,6.99917352e+01,-2.77773162e-06,5.70952308,4.15342658,2.07058553,-1.84509877,2.70324726e+01,6.72927772,-2.31405598,-1
6.95777683e+02,6.99916819e+01,-2.79884855e-06,5.70990364,4.15644222,2.06474452,-1.84509879,2.75322573e+01,6.73482137,-2.29709629,-1
7.15267540e+02,6.99916267e+01,-2.82717982e-06,5.71049189,4.15947290,2.05897731,-1.84509879,2.81046525e+01,6.74047250,-2.27981494,-1
7.35381793e+02,6.99915689e+01,-2.85851492e-06,5.71135121,4.16252422,2.05330432,-1.84509879,2.87093595e+01,6.74624820,-2.26216299,-1
7.55846350e+02,6.99915097e+01,-2.89100697e-06,5.71236881,4.16558733,2.04768690,-1.84509880,2.93263741e+01,6.75209473,-2.24430115,-1
7.77155476e+02,6.99914469e+01,-2.92274496e-06,5.71380973,4.16868020,2.04222161,-1.84509885,2.99340231e+01,6.75811838,-2.22592003,-1
7.98746491e+02,6.99913828e+01,-2.95636397e-06,5.71538192,4.17178299,2.03680214,-1.84509889,3.05605146e+01,6.76419613,-2.20738151,-1
8.21170243e+02,6.99913149e+01,-2.99553972e-06,5.71734188,4.17491505,2.03151799,-1.84509894,3.12426695e+01,6.77043370,-2.18837803,-1
8.43756534e+02,6.99912461e+01,-3.03874159e-06,5.71936351,4.17805693,2.02624505,-1.84509897,3.19685756e+01,6.77670180,-2.16928634,-1
8.67279308e+02,6.99911721e+01,-3.10514030e-06,5.72174048,4.18125537,2.02103666,-1.84509888,3.29465590e+01,6.78314572,-2.14968651,-1
8.91204804e+02,6.99910958e+01,-3.17328867e-06,5.72427990,4.18448073,2.01585564,-1.84509886,3.39478079e+01,6.78966822,-2.12985985,-1
9.15693238e+02,6.99910161e+01,-3.24388274e-06,5.72704639,4.18774373,2.01071290,-1.84509893,3.49815780e+01,6.79630055,-2.10971616,-1
9.40956527e+02,6.99909314e+01,-3.32047292e-06,5.73011920,4.19106062,2.00561552,-1.84509894,3.60890813e+01,6.80308248,-2.08914890,-1
9.66685007e+02,6.99908435e+01,-3.40124079e-06,5.73337007,4.19441113,2.00053992,-1.84509894,3.72480284e+01,6.80995329,-2.06833033,-1
9.92967934e+02,6.99907517e+01,-3.48727398e-06,5.73683025,4.19780235,1.99548757,-1.84509894,3.84718432e+01,6.81692956,-2.04721371,-1
1.02017050e+03,6.99906534e+01,-3.56736250e-06,5.74063730,4.20124857,1.99049865,-1.84509889,3.96377916e+01,6.82409271,-2.02557330,-1
1.04777159e+03,6.99905519e+01,-3.65029124e-06,5.74456981,4.20472024,1.98552158,-1.84509889,4.08403271e+01,6.83132845,-2.00373272,-1
1.07616553e+03,6.99904442e+01,-3.74030491e-06,5.74874532,4.20824294,1.98056393,-1.84509903,4.21319819e+01,6.83870639,-1.98150100,-1
1.10499156e+03,6.99903321e+01,-3.85248372e-06,5.75302418,4.21182203,1.97554519,-1.84509908,4.36907068e+01,6.84616284,-1.95905180,-1
1.13442999e+03,6.99902140e+01,-3.99607615e-06,5.75744952,4.21548103,1.97043986,-1.84509901,4.56279377e+01,6.85373056,-1.93629437,-1
1.16465602e+03,6.99900873e+01,-4.14065933e-06,5.76205696,4.21923898,1.96522766,-1.84509892,4.76130892e+01,6.86143487,-1.91316359,-1
1.19540981e+03,6.99899547e+01,-4.28836965e-06,5.76677793,4.22306123,1.95994365,-1.84509886,4.96595916e+01,6.86922852,-1.88979074,-1
1.22674604e+03,6.99898153e+01,-4.44082242e-06,5.77161692,4.22695396,1.95457768,-1.84509884,5.17902176e+01,6.87711901,-1.86615713,-1
1.25872933e+03,6.99896679e+01,-4.60017609e-06,5.77657292,4.23092545,1.94911270,-1.84509883,5.40369594e+01,6.88511378,-1.84224551,-1
1.29161864e+03,6.99895099e+01,-4.74269691e-06,5.78165657,4.23495187,1.94360169,-1.84509886,5.61236383e+01,6.89324955,-1.81795580,-1
1.32510718e+03,6.99893444e+01,-4.88967052e-06,5.78679051,4.23902186,1.93802869,-1.84509889,5.82948728e+01,6.90147382,-1.79343339,-1
1.35916521e+03,6.99891716e+01,-5.04228588e-06,5.79196913,4.24313390,1.93239393,-1.84509893,6.05636929e+01,6.90978179,-1.76869140,-1
1.39398091e+03,6.99889859e+01,-5.25943828e-06,5.79717247,4.24736756,1.92652827,-1.84509887,6.36904478e+01,6.91819588,-1.74367054,-1
1.42933540e+03,6.99887910e+01,-5.49046409e-06,5.80239160,4.25167984,1.92051327,-1.84509875,6.70478872e+01,6.92668262,-1.71846032,-1
1.46531486e+03,6.99885849e+01,-5.71907626e-06,5.80762477,4.25607697,1.91433559,-1.84509860,7.04551373e+01,6.93525063,-1.69303959,-1
1.50194844e+03,6.99883669e+01,-5.95092842e-06,5.81286069,4.26055763,1.90799223,-1.84509857,7.39885759e+01,6.94389898,-1.66741175,-1
1.53932461e+03,6.99881345e+01,-6.19000759e-06,5.81807571,4.26513268,1.90144964,-1.84509856,7.77207366e+01,6.95263183,-1.64157134,-1
1.57733859e+03,6.99878891e+01,-6.43660359e-06,5.82325024,4.26979125,1.89471978,-1.84509855,8.16536462e+01,6.96143144,-1.61556470,-1
1.61598328e+03,6.99876301e+01,-6.69128728e-06,5.82836478,4.27453734,1.88778485,-1.84509854,8.58080777e+01,6.97029080,-1.58941313,-1
1.65524386e+03,6.99873567e+01,-6.95433341e-06,5.83339925,4.27937707,1.88062264,-1.84509854,9.02033234e+01,6.97920107,-1.56314103,-1
1.69508581e+03,6.99870686e+01,-7.22572032e-06,5.83833288,4.28432028,1.87320303,-1.84509853,9.48579753e+01,6.98814907,-1.53678696,-1
1.73542150e+03,6.99867659e+01,-7.50507630e-06,5.84314140,4.28938905,1.86546975,-1.84509853,9.97931215e+01,6.99711013,-1.51042478,-1
1.77576183e+03,6.99864516e+01,-7.78973183e-06,5.84775428,4.29470412,1.85714604,-1.84509852,1.05054951e+02,7.00595141,-1.48444512,-1
1.81593249e+03,6.99861271e+01,-8.08411348e-06,5.85215737,4.30027935,1.84819715,-1.84509851,1.10734397e+02,7.01466960,-1.45884940,-1
1.85632415e+03,6.99857886e+01,-8.39376614e-06,5.85638954,4.30600302,1.83886588,-1.84509850,1.16874230e+02,7.02334750,-1.43339103,-1
1.89713250e+03,6.99854342e+01,-8.71169893e-06,5.86046762,4.31182381,1.82926335,-1.84509850,1.23381499e+02,7.03201478,-1.40798565,-1
1.93842880e+03,6.99850625e+01,-9.03228162e-06,5.86439030,4.31772459,1.81942312,-1.84509850,1.30204426e+02,7.04068099,-1.38260352,-1
1.98035401e+03,6.99846707e+01,-9.35587674e-06,5.86813941,4.32369254,1.80936177,-1.84509850,1.37407437e+02,7.04936011,-1.35720068,-1
2.02308539e+03,6.99842577e+01,-9.66479596e-06,5.87172811,4.32968079,1.79917963,-1.84509850,1.44714484e+02,7.05808823,-1.33167376,-1
2.06692831e+03,6.99838212e+01,-9.94141662e-06,5.87515404,4.33563484,1.78898450,-1.84509850,1.51842572e+02,7.06691431,-1.30587522,-1
2.11159600e+03,6.99833637e+01,-1.02432806e-05,5.87841869,4.34159669,1.77869313,-1.84509850,1.59694330e+02,7.07578813,-1.27995171,-1
2.15680614e+03,6.99828840e+01,-1.06215428e-05,5.88150527,4.34764056,1.76814868,-1.84509850,1.69241215e+02,7.08464367,-1.25409267,-1
2.20271500e+03,6.99823810e+01,-1.09760996e-05,5.88442646,4.35373040,1.75742959,-1.84509850,1.78951689e+02,7.09350795,-1.22821924,-1
2.24975582e+03,6.99818500e+01,-1.13234676e-05,5.88719756,4.35979313,1.74668966,-1.84509850,1.89039506e+02,7.10245896,-1.20210209,-1
2.29892846e+03,6.99812790e+01,-1.16267164e-05,5.88982729,4.36567816,1.73623448,-1.84509850,1.98763296e+02,7.11165835,-1.17526842,-1
2.34889950e+03,6.99806830e+01,-1.19032575e-05,5.89222438,4.37161958,1.72555019,-1.84509850,2.08679258e+02,7.12083284,-1.14851073,-1
2.39962709e+03,6.99800622e+01,-1.22513541e-05,5.89446147,4.37759936,1.71470917,-1.84509850,2.20459927e+02,7.13000813,-1.12175405,-1
2.45125436e+03,6.99794130e+01,-1.26087610e-05,5.89653915,4.38360729,1.70373215,-1.84509850,2.33116179e+02,7.13919618,-1.09496284,-1
2.50387341e+03,6.99787335e+01,-1.29463228e-05,5.89844332,4.38963787,1.69262307,-1.84509850,2.46221998e+02,7.14839711,-1.06813489,-1
2.55758901e+03,6.99780213e+01,-1.32598347e-05,5.90015635,4.39568759,1.68138014,-1.84509850,2.59792192e+02,7.15760798,-1.04127586,-1
2.61242005e+03,6.99772789e+01,-1.35286452e-05,5.90169147,4.40173914,1.67004460,-1.84509850,2.73352395e+02,7.16683135,-1.01437948,-1
2.66806916e+03,6.99765218e+01,-1.35994185e-05,5.90307720,4.40782521,1.65856533,-1.84509850,2.83560791e+02,7.17602810,-9.87559098e-01,-1
2.72491308e+03,6.99759352e+01,-9.95866417e-06,5.90436810,4.41391955,1.64702210,-1.84509851,2.13330231e+02,7.18525122,-9.60658665e-01,-1
2.78280389e+03,6.99758744e+01,-1.05562741e-06,5.90558562,4.42003474,1.63540049,-1.84509851,2.35528171e+01,7.19447655,-9.33750063e-01,-1
2.84191024e+03,6.99758074e+01,-1.14172444e-06,5.90661842,4.42614870,1.62368896,-1.84509851,2.63728301e+01,7.20372272,-9.06776818e-01,-1
2.90230136e+03,6.99757339e+01,-1.21896851e-06,5.90751013,4.43226266,1.61190689,-1.84509852,2.91746976e+01,7.21297438,-8.79778940e-01,-1
2.96409777e+03,6.99756535e+01,-1.29479270e-06,5.90827448,4.43836957,1.60007525,-1.84509852,3.21442296e+01,7.22223213,-8.52755818e-01,-1
3.02688658e+03,6.99755663e+01,-1.39366664e-06,5.90895693,4.44449957,1.58815649,-1.84509853,3.59085390e+01,7.23147619,-8.25765022e-01,-1
3.09116999e+03,6.99754706e+01,-1.50055771e-06,5.90955386,4.45060902,1.57623605,-1.84509853,4.01470247e+01,7.24076293,-7.98642329e-01,-1
3.15664187e+03,6.99753663e+01,-1.60267130e-06,5.91005235,4.45674283,1.56421766,-1.84509854,4.45901461e+01,7.25002926,-7.71572948e-01,-1
3.22386603e+03,6.99752520e+01,-1.70126880e-06,5.91045428,4.46284917,1.55220595,-1.84509855,4.92800470e+01,7.25933171,-7.44386333e-01,-1
3.29277753e+03,6.99751286e+01,-1.78856122e-06,5.91077456,4.46892438,1.54021568,-1.84509856,5.39509790e+01,7.26866038,-7.17113013e-01,-1
3.36324010e+03,6.99749958e+01,-1.88519714e-06,5.91103168,4.47497800,1.52823699,-1.84509857,5.92088265e+01,7.27801026,-6.89765998e-01,-1
3.43528481e+03,6.99748517e+01,-2.00595538e-06,5.91122580,4.48103044,1.51622918,-1.84509858,6.56144375e+01,7.28737435,-6.62363558e-01,-1
3.50894831e+03,6.99746963e+01,-2.11875621e-06,5.91134955,4.48707375,1.50420443,-1.84509858,7.21731382e+01,7.29675297,-6.34903677e-01,-1
3.58444178e+03,6.99745290e+01,-2.21671011e-06,5.91140147,4.49309574,1.49218641,-1.84509859,7.86158365e+01,7.30614743,-6.07382219e-01,-1
3.66186128e+03,6.99743497e+01,-2.30761094e-06,5.91138942,4.49909356,1.48018474,-1.84509860,8.51765215e+01,7.31555209,-5.79817253e-01,-1
3.74085436e+03,6.99741590e+01,-2.41827603e-06,5.91132789,4.50508495,1.46817120,-1.84509861,9.28263287e+01,7.32496451,-5.52212565e-01,-1
3.82159632e+03,6.99739549e+01,-2.53744741e-06,5.91120711,4.51107336,1.45613399,-1.84509862,1.01226448e+02,7.33438647,-5.24565609e-01,-1
3.90414172e+03,6.99737374e+01,-2.64745446e-06,5.91102512,4.51705289,1.44408394,-1.84509862,1.09708404e+02,7.34381778,-4.96879463e-01,-1
3.98878484e+03,6.99735060e+01,-2.73649251e-06,5.91078057,4.52301129,1.43204486,-1.84509863,1.17759164e+02,7.35325422,-4.69164742e-01,-1
