star_age,star_mass,star_mdot,log_L,log_Teff,log_R,log_surf_z,v_wind_Km_per_s,log_center_T,log_center_Rho,phase,x
2.68766934e+02,1.04994781e+02,-2.11901073e-05,6.13173833,4.34215869,1.90422893,-1.84509848,2.35019612e+02,7.02974409,-1.54925157,-1,-1.0
2.74591713e+02,1.04994651e+02,-2.13599599e-05,6.13269402,4.34294723,1.90312970,-1.84509848,2.37374389e+02,7.03127660,-1.54477210,-1,-0.9995043607681813
2.80416491e+02,1.04994521e+02,-2.15298125e-05,6.13364972,4.34373577,1.90203047,-1.84509848,2.39729167e+02,7.03280912,-1.54029263,-1,-0.9990087216214542
2.86241269e+02,1.04994390e+02,-2.16996651e-05,6.13460541,4.34452431,1.90093124,-1.84509848,2.42083944e+02,7.03434163,-1.53581316,-1,-0.9985130824747269
2.92066048e+02,1.04994260e+02,-2.18695177e-05,6.13556110,4.34531285,1.89983201,-1.84509848,2.44438721e+02,7.03587415,-1.53133369,-1,-0.9980174432429083
2.97890826e+02,1.04994130e+02,-2.20393703e-05,6.13651680,4.34610139,1.89873278,-1.84509848,2.46793499e+02,7.03740666,-1.52685422,-1,-0.9975218040961811
3.03715605e+02,1.04993999e+02,-2.22092229e-05,6.13747249,4.34688993,1.89763355,-1.84509848,2.49148276e+02,7.03893918,-1.52237475,-1,-0.9970261648643624
3.09540383e+02,1.04993869e+02,-2.23790755e-05,6.13842818,4.34767847,1.89653431,-1.84509848,2.51503053e+02,7.04047169,-1.51789528,-1,-0.9965305257176352
3.16149290e+02,1.04993714e+02,-2.25648154e-05,6.13944516,4.34857710,1.89524554,-1.84509848,2.54219483e+02,7.04219048,-1.51287556,-1,-0.9959681638514355
3.22760598e+02,1.04993559e+02,-2.27506040e-05,6.14046232,4.34947606,1.89395619,-1.84509848,2.56937020e+02,7.04390984,-1.50785420,-1,-0.9954055976805238
3.29371906e+02,1.04993403e+02,-2.29363926e-05,6.14147948,4.35037503,1.89266683,-1.84509848,2.59654557e+02,7.04562919,-1.50283283,-1,-0.9948430315096121
3.35983214e+02,1.04993248e+02,-2.31221811e-05,6.14249665,4.35127400,1.89137748,-1.84509848,2.62372094e+02,7.04734855,-1.49781146,-1,-0.9942804653387004
3.42594522e+02,1.04993093e+02,-2.33079697e-05,6.14351381,4.35217296,1.89008813,-1.84509848,2.65089631e+02,7.04906790,-1.49279009,-1,-0.9937178991677887
3.49292211e+02,1.04992935e+02,-2.34957239e-05,6.14453584,4.35308396,1.88877715,-1.84509848,2.67853906e+02,7.05080709,-1.48771125,-1,-0.9931479827072809
3.56654013e+02,1.04992755e+02,-2.36985897e-05,6.14559532,4.35408746,1.88729989,-1.84509848,2.70977509e+02,7.05269876,-1.48219047,-1,-0.9925215558697852
3.64015815e+02,1.04992574e+02,-2.39014555e-05,6.14665480,4.35509096,1.88582263,-1.84509848,2.74101111e+02,7.05459044,-1.47666969,-1,-0.9918951290322895
3.71377617e+02,1.04992394e+02,-2.41043213e-05,6.14771428,4.35609446,1.88434537,-1.84509848,2.77224714e+02,7.05648211,-1.47114891,-1,-0.9912687021947939
3.78739420e+02,1.04992213e+02,-2.43071871e-05,6.14877375,4.35709796,1.88286811,-1.84509848,2.80348316e+02,7.05837378,-1.46562813,-1,-0.9906422752722066
3.86101222e+02,1.04992033e+02,-2.45100529e-05,6.14983323,4.35810146,1.88139085,-1.84509848,2.83471919e+02,7.06026545,-1.46010736,-1,-0.990015848434711
3.94170851e+02,1.04991827e+02,-2.47291452e-05,6.15092013,4.35920426,1.87972870,-1.84509848,2.87020113e+02,7.06231802,-1.45412054,-1,-0.9893291915300246
4.02260223e+02,1.04991620e+02,-2.49486901e-05,6.15200779,4.36030983,1.87806139,-1.84509848,2.90580149e+02,7.06437509,-1.44812072,-1,-0.9886408546636859
4.10349594e+02,1.04991414e+02,-2.51682350e-05,6.15309545,4.36141540,1.87639408,-1.84509848,2.94140186e+02,7.06643215,-1.44212090,-1,-0.9879525178824388
4.18438966e+02,1.04991207e+02,-2.53877799e-05,6.15418311,4.36252097,1.87472677,-1.84509848,2.97700222e+02,7.06848921,-1.43612108,-1,-0.9872641810161
4.26787481e+02,1.04990991e+02,-2.56132991e-05,6.15527612,4.36366145,1.87299231,-1.84509848,3.01429189e+02,7.07060061,-1.42996435,-1,-0.9865537932809727
4.35589760e+02,1.04990758e+02,-2.58492793e-05,6.15637852,4.36486306,1.87114029,-1.84509848,3.05453956e+02,7.07280716,-1.42353287,-1,-0.9858047940825801
4.44392039e+02,1.04990524e+02,-2.60852595e-05,6.15748092,4.36606468,1.86928826,-1.84509848,3.09478724e+02,7.07501372,-1.41710139,-1,-0.9850557948841876
4.53194319e+02,1.04990291e+02,-2.63212397e-05,6.15858332,4.36726629,1.86743623,-1.84509848,3.13503491e+02,7.07722027,-1.41066991,-1,-0.9843067956007036
4.62111935e+02,1.04990053e+02,-2.65597111e-05,6.15968667,4.36848385,1.86555279,-1.84509848,3.17609058e+02,7.07945141,-1.40416721,-1,-0.9835479822029946
4.71614145e+02,1.04989792e+02,-2.68108089e-05,6.16079485,4.36978223,1.86351011,-1.84509848,3.22124163e+02,7.08180714,-1.39730353,-1,-0.9827394248199626
4.81116355e+02,1.04989530e+02,-2.70619067e-05,6.16190303,4.37108062,1.86146743,-1.84509848,3.26639268e+02,7.08416287,-1.39043985,-1,-0.9819308674369306
4.90618565e+02,1.04989269e+02,-2.73130045e-05,6.16301121,4.37237900,1.85942475,-1.84509848,3.31154373e+02,7.08651860,-1.38357617,-1,-0.9811223100538985
5.00323874e+02,1.04988999e+02,-2.75684425e-05,6.16411824,4.37370463,1.85732701,-1.84509848,3.35823146e+02,7.08891493,-1.37659533,-1,-0.9802964706705807
5.10517045e+02,1.04988709e+02,-2.78343059e-05,6.16522248,4.37509569,1.85509701,-1.84509848,3.40861045e+02,7.09140876,-1.36933306,-1,-0.9794291183737405
5.20710216e+02,1.04988420e+02,-2.81001693e-05,6.16632673,4.37648676,1.85286700,-1.84509848,3.45898943e+02,7.09390260,-1.36207079,-1,-0.9785617660769003
5.30903387e+02,1.04988130e+02,-2.83660327e-05,6.16743098,4.37787782,1.85063700,-1.84509848,3.50936841e+02,7.09639644,-1.35480852,-1,-0.9776944137800601
5.41570278e+02,1.04987819e+02,-2.86413765e-05,6.16852693,4.37933148,1.84827766,-1.84509848,3.56358145e+02,7.09898139,-1.34728265,-1,-0.9767867519338108
5.52446116e+02,1.04987499e+02,-2.89209020e-05,6.16961922,4.38081274,1.84586128,-1.84509848,3.61948561e+02,7.10160654,-1.33964051,-1,-0.975861310472134
5.63321953e+02,1.04987180e+02,-2.92004275e-05,6.17071152,4.38229401,1.84344489,-1.84509848,3.67538978e+02,7.10423169,-1.33199837,-1,-0.9749358690955487
5.74438680e+02,1.04986850e+02,-2.94687284e-05,6.17179305,4.38380439,1.84096490,-1.84509848,3.73134693e+02,7.10689864,-1.32423554,-1,-0.9739899300254796
5.86058977e+02,1.04986497e+02,-2.97135649e-05,6.17285208,4.38537562,1.83835195,-1.84509848,3.78741485e+02,7.10965298,-1.31622041,-1,-0.9730011414244726
5.97679273e+02,1.04986145e+02,-2.99584014e-05,6.17391110,4.38694686,1.83573899,-1.84509848,3.84348277e+02,7.11240731,-1.30820528,-1,-0.9720123529085571
6.09299569e+02,1.04985793e+02,-3.02032379e-05,6.17497013,4.38851809,1.83312604,-1.84509848,3.89955069e+02,7.11516165,-1.30019014,-1,-0.9710235643926416
6.21394199e+02,1.04985419e+02,-3.04542328e-05,6.17600261,4.39014684,1.83038477,-1.84509848,3.95968949e+02,7.11799653,-1.29194181,-1,-0.9699944140811309
6.33895722e+02,1.04985026e+02,-3.07105105e-05,6.17701233,4.39182494,1.82753344,-1.84509848,4.02332036e+02,7.12090051,-1.28349344,-1,-0.96893064063045
6.46397245e+02,1.04984634e+02,-3.09667882e-05,6.17802204,4.39350303,1.82468211,-1.84509848,4.08695124e+02,7.12380448,-1.27504507,-1,-0.967866867179769
6.58898767e+02,1.04984241e+02,-3.12230660e-05,6.17903175,4.39518113,1.82183077,-1.84509848,4.15058211e+02,7.12670845,-1.26659669,-1,-0.9668030938141796
6.71675365e+02,1.04983835e+02,-3.15181133e-05,6.18003210,4.39689398,1.81890524,-1.84509848,4.22170143e+02,7.12966070,-1.25800827,-1,-0.9657159138167967
6.85047151e+02,1.04983398e+02,-3.18970477e-05,6.18101219,4.39868206,1.81581913,-1.84509848,4.30902376e+02,7.13271741,-1.24911683,-1,-0.9645780883746496
6.98418937e+02,1.04982961e+02,-3.22759821e-05,6.18199228,4.40047013,1.81273303,-1.84509848,4.39634610e+02,7.13577412,-1.24022538,-1,-0.9634402629325026
7.11795180e+02,1.04982525e+02,-3.26547956e-05,6.18297216,4.40225874,1.80964575,-1.84509849,4.48369599e+02,7.13883153,-1.23133187,-1,-0.9623020582375021
7.25918822e+02,1.04982049e+02,-3.30133307e-05,6.18391610,4.40413708,1.80636103,-1.84509849,4.57566784e+02,7.14200852,-1.22209125,-1,-0.9611002562341365
7.40042464e+02,1.04981573e+02,-3.33718657e-05,6.18486004,4.40601543,1.80307631,-1.84509849,4.66763968e+02,7.14518551,-1.21285064,-1,-0.9598984542307708
7.54255584e+02,1.04981112e+02,-3.32297168e-05,6.18579994,4.40790404,1.79976905,-1.84509849,4.68811776e+02,7.14837535,-1.20357289,-1,-0.9586890384094072
7.69077578e+02,1.04980751e+02,-2.96805943e-05,6.18671241,4.40986246,1.79630844,-1.84509849,4.22210669e+02,7.15165262,-1.19404243,-1,-0.957427812580894
7.83899572e+02,1.04980391e+02,-2.61314719e-05,6.18762488,4.41182088,1.79284783,-1.84509849,3.75609562e+02,7.15492989,-1.18451197,-1,-0.9561665867523809
7.99051000e+02,1.04980189e+02,-1.99862814e-05,6.18852441,4.41381828,1.78930280,-1.84509849,2.89305787e+02,7.15825827,-1.17483340,-1,-0.9548773288878548
8.14539379e+02,1.04980150e+02,-1.11857915e-05,6.18941071,4.41585554,1.78567143,-1.84509849,1.62393492e+02,7.16163892,-1.16500333,-1,-0.9535593993544464
8.30038875e+02,1.04980110e+02,-2.53495292e-06,6.19029571,4.41789395,1.78203710,-1.84509849,3.76476238e+01,7.16502110,-1.15516884,-1,-0.952240523858738
8.46186750e+02,1.04980066e+02,-2.61194671e-06,6.19110500,4.41999967,1.77823032,-1.84509849,3.92500732e+01,7.16849174,-1.14507682,-1,-0.9508664768158367
8.62334625e+02,1.04980023e+02,-2.68894051e-06,6.19191429,4.42210538,1.77442353,-1.84509849,4.08525227e+01,7.17196238,-1.13498480,-1,-0.9494924297729352
8.78951422e+02,1.04979975e+02,-2.76007947e-06,6.19267674,4.42425741,1.77050071,-1.84509849,4.24359630e+01,7.17548995,-1.12472816,-1,-0.9480784814496827
8.95815898e+02,1.04979926e+02,-2.82812597e-06,6.19341444,4.42643389,1.76651659,-1.84509849,4.40093630e+01,7.17904759,-1.11438457,-1,-0.946643457746695
9.12680375e+02,1.04979878e+02,-2.89617247e-06,6.19415214,4.42861038,1.76253247,-1.84509849,4.55827629e+01,7.18260523,-1.10404097,-1,-0.9452084339586158
9.30346286e+02,1.04979823e+02,-2.96890770e-06,6.19481289,4.43086117,1.75836126,-1.84509849,4.73589504e+01,7.18625409,-1.09343061,-1,-0.9437052149425094
9.48063491e+02,1.04979767e+02,-3.04194302e-06,6.19546871,4.43311672,1.75417807,-1.84509849,4.91481169e+01,7.18990879,-1.08280318,-1,-0.9421976312425657
9.65780696e+02,1.04979712e+02,-3.11497834e-06,6.19612453,4.43537227,1.74999489,-1.84509849,5.09372833e+01,7.19356348,-1.07217574,-1,-0.9406900475426221
9.84205395e+02,1.04979650e+02,-3.22008344e-06,6.19673444,4.43769493,1.74565451,-1.84509849,5.33989519e+01,7.19730396,-1.06129862,-1,-0.9391222621109601
1.00276566e+03,1.04979587e+02,-3.33133342e-06,6.19733554,4.44003045,1.74128402,-1.84509849,5.59894787e+01,7.20106087,-1.05037367,-1,-0.9375429411638562
1.02158045e+03,1.04979521e+02,-3.44147237e-06,6.19791745,4.44238796,1.73685996,-1.84509849,5.86268909e+01,7.20484600,-1.03936646,-1,-0.9359419623005499
1.04087855e+03,1.04979451e+02,-3.54950178e-06,6.19846292,4.44478722,1.73233418,-1.84509849,6.13533250e+01,7.20868471,-1.02820309,-1,-0.9342998578602681
1.06026633e+03,1.04979379e+02,-3.65758576e-06,6.19900100,4.44719345,1.72779075,-1.84509850,6.41056433e+01,7.21253268,-1.01701259,-1,-0.9326501224135035
1.08026012e+03,1.04979302e+02,-3.76603839e-06,6.19948921,4.44964687,1.72312801,-1.84509850,6.70328364e+01,7.21644322,-1.00563887,-1,-0.9309488206616698
1.10029527e+03,1.04979224e+02,-3.87460964e-06,6.19997399,4.45210325,1.71845764,-1.84509850,6.99745131e+01,7.22035778,-9.94253385e-01,-1,-0.9292439995250443
1.12096772e+03,1.04979140e+02,-3.98500869e-06,6.20040606,4.45460528,1.71366963,-1.84509850,7.31393556e+01,7.22433437,-9.82686694e-01,-1,-0.9274849495700486
1.14170130e+03,1.04979055e+02,-4.09411664e-06,6.20083266,4.45711102,1.70887144,-1.84509850,7.62981396e+01,7.22831609,-9.71104802e-01,-1,-0.925720697971138
1.16312009e+03,1.04978963e+02,-4.18875216e-06,6.20119810,4.45965852,1.70395916,-1.84509850,7.93890111e+01,7.23235535,-9.59352516e-01,-1,-0.9238981408196846
1.18453889e+03,1.04978870e+02,-4.28338767e-06,6.20156354,4.46220602,1.69904688,-1.84509850,8.24798826e+01,7.23639461,-9.47600230e-01,-1,-0.922075582817316
1.20666214e+03,1.04978771e+02,-4.38088464e-06,6.20187570,4.46479354,1.69402792,-1.84509850,8.58330084e+01,7.24048902,-9.35686247e-01,-1,-0.9201930821017811
1.22897287e+03,1.04978669e+02,-4.47914314e-06,6.20217368,4.46739171,1.68898057,-1.84509850,8.92559283e+01,7.24459811,-9.23729230e-01,-1,-0.9182946284302316
1.25141469e+03,1.04978565e+02,-4.58413644e-06,6.20246500,4.46999832,1.68391301,-1.84509851,9.28613267e+01,7.24871878,-9.11738024e-01,-1,-0.9163850201128323
1.27460380e+03,1.04978452e+02,-4.72751932e-06,6.20271830,4.47265303,1.67873025,-1.84509851,9.75068836e+01,7.25290543,-8.99551931e-01,-1,-0.9144118237620421
1.29779291e+03,1.04978339e+02,-4.87090221e-06,6.20297159,4.47530773,1.67354749,-1.84509851,1.02152440e+02,7.25709208,-8.87365838e-01,-1,-0.9124386274112519
1.32175227e+03,1.04978217e+02,-5.00591008e-06,6.20317972,4.47800787,1.66825127,-1.84509851,1.06932860e+02,7.26133989,-8.75000075e-01,-1,-0.9103998893260358
1.34575456e+03,1.04978093e+02,-5.14070400e-06,6.20338530,4.48071036,1.66294908,-1.84509851,1.11725764e+02,7.26559088,-8.62624896e-01,-1,-0.9083574982623595
1.37045800e+03,1.04977960e+02,-5.27272987e-06,6.20354913,4.48345075,1.65755021,-1.84509851,1.16736838e+02,7.26989314,-8.50097640e-01,-1,-0.9062554452874949
1.39531861e+03,1.04977825e+02,-5.40462830e-06,6.20370422,4.48619903,1.65213120,-1.84509852,1.21807049e+02,7.27420623,-8.37538119e-01,-1,-0.9041400184802385
1.42074615e+03,1.04977683e+02,-5.53606706e-06,6.20382778,4.48897574,1.64663956,-1.84509852,1.27090572e+02,7.27855843,-8.24862219e-01,-1,-0.9019763507440653
1.44653320e+03,1.04977535e+02,-5.65823581e-06,6.20393185,4.49176714,1.64110880,-1.84509852,1.32288145e+02,7.28293102,-8.12125556e-01,-1,-0.8997820917596695
1.47276397e+03,1.04977382e+02,-5.76896311e-06,6.20401185,4.49457666,1.63552976,-1.84509852,1.37379633e+02,7.28732877,-7.99313897e-01,-1,-0.8975500759711198
1.49936852e+03,1.04977224e+02,-5.88033528e-06,6.20407600,4.49740064,1.62991387,-1.84509853,1.42610730e+02,7.29174655,-7.86442408e-01,-1,-0.8952862546785211
1.52655959e+03,1.04977058e+02,-5.99271939e-06,6.20411525,4.50024731,1.62424015,-1.84509853,1.48060905e+02,7.29619574,-7.73477033e-01,-1,-0.892972525514354
1.55375674e+03,1.04976892e+02,-6.10540385e-06,6.20415432,4.50309427,1.61856577,-1.84509853,1.53521022e+02,7.30064532,-7.60510500e-01,-1,-0.8906582789938151
1.58189122e+03,1.04976711e+02,-6.26450362e-06,6.20416433,4.50598512,1.61278908,-1.84509853,1.60517594e+02,7.30515518,-7.47365086e-01,-1,-0.8882642736496092
1.61005985e+03,1.04976530e+02,-6.42308145e-06,6.20417305,4.50887735,1.60700898,-1.84509853,1.67515683e+02,7.30966703,-7.34213750e-01,-1,-0.8858673624303879
1.63903895e+03,1.04976337e+02,-6.56926984e-06,6.20415140,4.51180234,1.60114818,-1.84509854,1.74549803e+02,7.31422581,-7.20921858e-01,-1,-0.8834014870962685
1.66822712e+03,1.04976140e+02,-6.71380983e-06,6.20412216,4.51473479,1.59526865,-1.84509854,1.81630176e+02,7.31879562,-7.07597030e-01,-1,-0.880917821680466
1.69801514e+03,1.04975934e+02,-6.85362059e-06,6.20407112,4.51768866,1.58933539,-1.84509854,1.88843245e+02,7.32339707,-6.94177710e-01,-1,-0.8783831141232865
1.72831123e+03,1.04975721e+02,-6.97842338e-06,6.20400306,4.52065618,1.58336633,-1.84509854,1.95841438e+02,7.32801982,-6.80693298e-01,-1,-0.875805174123381
1.75899357e+03,1.04975502e+02,-7.09181664e-06,6.20392205,4.52363407,1.57737004,-1.84509854,2.02676274e+02,7.33265876,-6.67159402e-01,-1,-0.8731943675283154
1.79031687e+03,1.04975273e+02,-7.20482714e-06,6.20382383,4.52662834,1.57133238,-1.84509855,2.09746636e+02,7.33732312,-6.53549344e-01,-1,-0.8705290206799583
1.82206961e+03,1.04975039e+02,-7.31758117e-06,6.20371408,4.52963359,1.56526702,-1.84509855,2.16974800e+02,7.34200450,-6.39888257e-01,-1,-0.8678271321341888
1.85414849e+03,1.04974798e+02,-7.44415287e-06,6.20359662,4.53265084,1.55917378,-1.84509855,2.24764424e+02,7.34670223,-6.26178796e-01,-1,-0.8650974918438356
1.88693564e+03,1.04974546e+02,-7.60073117e-06,6.20346243,4.53569417,1.55302002,-1.84509855,2.33773321e+02,7.35143546,-6.12364289e-01,-1,-0.8623075837907533
1.92012538e+03,1.04974288e+02,-7.74982732e-06,6.20331656,4.53875121,1.54683301,-1.84509856,2.42738645e+02,7.35618586,-5.98497425e-01,-1,-0.8594834187472621
1.95382880e+03,1.04974020e+02,-7.88937729e-06,6.20315580,4.54182573,1.54060360,-1.84509856,2.51648375e+02,7.36095815,-5.84563762e-01,-1,-0.8566155438976819
1.98817586e+03,1.04973743e+02,-8.02198118e-06,6.20297739,4.54492116,1.53432354,-1.84509856,2.60603976e+02,7.36575527,-5.70557371e-01,-1,-0.8536929007495676
2.02285700e+03,1.04973460e+02,-8.15135469e-06,6.20279003,4.54802730,1.52801758,-1.84509856,2.69590060e+02,7.37056484,-5.56514076e-01,-1,-0.8507418302302918
2.05828431e+03,1.04973165e+02,-8.27527303e-06,6.20258374,4.55115672,1.52165558,-1.84509857,2.78675572e+02,7.37540027,-5.42392323e-01,-1,-0.8477272669801149
2.09424967e+03,1.04972861e+02,-8.38578874e-06,6.20236428,4.55429810,1.51526309,-1.84509857,2.87473762e+02,7.38024834,-5.28233596e-01,-1,-0.8446669202437868
2.13063976e+03,1.04972552e+02,-8.48572482e-06,6.20213441,4.55744891,1.50884654,-1.84509857,2.96045149e+02,7.38510639,-5.14045685e-01,-1,-0.8415704325910514
2.16785236e+03,1.04972229e+02,-8.58296895e-06,6.20188804,4.56062133,1.50237851,-1.84509858,3.04779368e+02,7.38998354,-4.99802891e-01,-1,-0.8384039563216553
2.20537247e+03,1.04971902e+02,-8.67920667e-06,6.20163551,4.56380184,1.49589123,-1.84509858,3.13574463e+02,7.39486783,-4.85539579e-01,-1,-0.835211313562479
2.24358600e+03,1.04971564e+02,-8.79443130e-06,6.20136845,4.56699587,1.48936964,-1.84509859,3.23302449e+02,7.39977873,-4.71200764e-01,-1,-0.831959666649475
2.28226785e+03,1.04971218e+02,-8.92247973e-06,6.20109158,4.57019902,1.48282489,-1.84509859,3.33660511e+02,7.40470759,-4.56810953e-01,-1,-0.8286681696812079
2.32180104e+03,1.04970858e+02,-9.03468558e-06,6.20079584,4.57341982,1.47623543,-1.84509860,3.43763453e+02,7.40966493,-4.42342574e-01,-1,-0.8253042309080901
2.36172953e+03,1.04970493e+02,-9.14103658e-06,6.20049157,4.57664768,1.46962759,-1.84509860,3.53794147e+02,7.41463432,-4.27842022e-01,-1,-0.8219066554616603
2.40243258e+03,1.04970116e+02,-9.23821317e-06,6.20017095,4.57988761,1.46298740,-1.84509860,3.63753985e+02,7.41962556,-4.13285027e-01,-1,-0.8184431715364027
2.44390872e+03,1.04969727e+02,-9.31907264e-06,6.19983558,4.58313366,1.45632763,-1.84509861,3.73286669e+02,7.42463060,-3.98696669e-01,-1,-0.814913904216835
2.48573253e+03,1.04969334e+02,-9.39259395e-06,6.19949359,4.58638246,1.44965904,-1.84509862,3.82627252e+02,7.42964183,-3.84094206e-01,-1,-0.8113550531325053
2.52876503e+03,1.04968924e+02,-9.46034999e-06,6.19913289,4.58964058,1.44296244,-1.84509862,3.92005899e+02,7.43467515,-3.69454137e-01,-1,-0.8076933527927607
2.57193253e+03,1.04968513e+02,-9.52746211e-06,6.19877011,4.59289974,1.43626272,-1.84509863,4.01388797e+02,7.43971094,-3.54809868e-01,-1,-0.8040201650993678
2.61617860e+03,1.04968085e+02,-9.60748093e-06,6.19838669,4.59617281,1.42952489,-1.84509863,4.11555181e+02,7.44477378,-3.40114874e-01,-1,-0.8002552002576466
2.66077992e+03,1.04967653e+02,-9.68859029e-06,6.19799657,4.59944995,1.42277553,-1.84509863,4.21839217e+02,7.44984493,-3.25406327e-01,-1,-0.796460006657529
2.70646413e+03,1.04967206e+02,-9.75300652e-06,6.19758665,4.60273644,1.41599760,-1.84509863,4.31592632e+02,7.45493775,-3.10676437e-01,-1,-0.7925726683137664
2.75276637e+03,1.04966751e+02,-9.81086851e-06,6.19716658,4.60602583,1.40920877,-1.84509863,4.41138321e+02,7.46004021,-2.95949943e-01,-1,-0.7886327408650022
2.79966231e+03,1.04966289e+02,-9.86235094e-06,6.19673687,4.60931772,1.40241016,-1.84509863,4.50478764e+02,7.46515150,-2.81228425e-01,-1,-0.7846422945876387
2.84785512e+03,1.04965810e+02,-9.89739118e-06,6.19628945,4.61260594,1.39561000,-1.84509864,4.59199668e+02,7.47026878,-2.66569282e-01,-1,-0.7805414956856402
2.89651354e+03,1.04965327e+02,-9.93016137e-06,6.19583582,4.61589118,1.38881270,-1.84509866,4.67853792e+02,7.47538277,-2.51936373e-01,-1,-0.7764010773263668
2.94635162e+03,1.04964830e+02,-9.95718017e-06,6.19536647,4.61916888,1.38202263,-1.84509867,4.76338721e+02,7.48048844,-2.37369932e-01,-1,-0.77216027991817
