star_age,star_mass,star_mdot,log_L,log_Teff,log_R,log_surf_z,v_wind_Km_per_s,log_center_T,log_center_Rho,phase
3.87024407e+02,1.99987872e+02,-3.14918000e-05,6.58737988,4.63601633,1.54433443,-1.84509853,9.49702602e+02,7.45726511,-5.24535193e-01,-1
3.93115327e+02,1.99987680e+02,-3.14966944e-05,6.58736924,4.63652389,1.54331400,-1.84509853,9.51882655e+02,7.45812150,-5.21968642e-01,-1
3.99206246e+02,1.99987488e+02,-3.15015889e-05,6.58735861,4.63703144,1.54229357,-1.84509854,9.54062707e+02,7.45897789,-5.19402091e-01,-1
4.05297166e+02,1.99987296e+02,-3.15064833e-05,6.58734797,4.63753900,1.54127315,-1.84509854,9.56242759e+02,7.45983427,-5.16835540e-01,-1
4.11388085e+02,1.99987103e+02,-3.15113777e-05,6.58733733,4.63804655,1.54025272,-1.84509854,9.58422812e+02,7.46069066,-5.14268989e-01,-1
4.17479004e+02,1.99986911e+02,-3.15162722e-05,6.58732670,4.63855411,1.53923229,-1.84509854,9.60602864e+02,7.46154705,-5.11702438e-01,-1
4.23569924e+02,1.99986719e+02,-3.15211666e-05,6.58731606,4.63906166,1.53821186,-1.84509854,9.62782916e+02,7.46240343,-5.09135887e-01,-1
4.29660843e+02,1.99986527e+02,-3.15260610e-05,6.58730543,4.63956922,1.53719143,-1.84509854,9.64962969e+02,7.46325982,-5.06569336e-01,-1
4.35751762e+02,1.99986335e+02,-3.15309554e-05,6.58729479,4.64007677,1.53617100,-1.84509854,9.67143021e+02,7.46411620,-5.04002785e-01,-1
4.41842682e+02,1.99986142e+02,-3.15358499e-05,6.58728416,4.64058433,1.53515058,-1.84509854,9.69323074e+02,7.46497259,-5.01436234e-01,-1
4.47933601e+02,1.99985950e+02,-3.15407443e-05,6.58727352,4.64109188,1.53413015,-1.84509854,9.71503126e+02,7.46582898,-4.98869683e-01,-1
4.54024520e+02,1.99985758e+02,-3.15456387e-05,6.58726289,4.64159944,1.53310972,-1.84509855,9.73683178e+02,7.46668536,-4.96303132e-01,-1
4.60115440e+02,1.99985566e+02,-3.15505331e-05,6.58725225,4.64210699,1.53208929,-1.84509855,9.75863231e+02,7.46754175,-4.93736581e-01,-1
4.66506885e+02,1.99985364e+02,-3.15550959e-05,6.58724290,4.64263490,1.53102879,-1.84509855,9.78121944e+02,7.46843324,-4.91064686e-01,-1
4.73627866e+02,1.99985139e+02,-3.15588533e-05,6.58723664,4.64321222,1.52987102,-1.84509855,9.80571609e+02,7.46940997,-4.88137064e-01,-1
4.80748846e+02,1.99984914e+02,-3.15626107e-05,6.58723038,4.64378955,1.52871325,-1.84509855,9.83021273e+02,7.47038669,-4.85209443e-01,-1
4.87869827e+02,1.99984689e+02,-3.15663682e-05,6.58722412,4.64436687,1.52755548,-1.84509855,9.85470938e+02,7.47136341,-4.82281821e-01,-1
4.94990807e+02,1.99984464e+02,-3.15701256e-05,6.58721786,4.64494419,1.52639770,-1.84509855,9.87920603e+02,7.47234013,-4.79354200e-01,-1
5.02111788e+02,1.99984239e+02,-3.15738830e-05,6.58721160,4.64552151,1.52523993,-1.84509855,9.90370267e+02,7.47331685,-4.76426579e-01,-1
5.09232768e+02,1.99984014e+02,-3.15776405e-05,6.58720535,4.64609883,1.52408216,-1.84509855,9.92819932e+02,7.47429358,-4.73498957e-01,-1
5.16353748e+02,1.99983789e+02,-3.15813979e-05,6.58719909,4.64667615,1.52292439,-1.84509855,9.95269597e+02,7.47527030,-4.70571336e-01,-1
5.23474729e+02,1.99983565e+02,-3.15851553e-05,6.58719283,4.64725348,1.52176662,-1.84509855,9.97719261e+02,7.47624702,-4.67643715e-01,-1
5.30595709e+02,1.99983340e+02,-3.15889128e-05,6.58718657,4.64783080,1.52060884,-1.84509855,1.00016893e+03,7.47722374,-4.64716093e-01,-1
5.38458574e+02,1.99983091e+02,-3.15883869e-05,6.58718158,4.64845494,1.51935806,-1.84509855,1.00269348e+03,7.47828121,-4.61546627e-01,-1
5.46507555e+02,1.99982837e+02,-3.15867864e-05,6.58717690,4.64909083,1.51808395,-1.84509855,1.00523682e+03,7.47935893,-4.58316490e-01,-1
5.54556537e+02,1.99982583e+02,-3.15851860e-05,6.58717223,4.64972672,1.51680983,-1.84509856,1.00778017e+03,7.48043665,-4.55086352e-01,-1
5.62605518e+02,1.99982329e+02,-3.15835855e-05,6.58716755,4.65036261,1.51553571,-1.84509856,1.01032351e+03,7.48151437,-4.51856215e-01,-1
5.70654499e+02,1.99982075e+02,-3.15819851e-05,6.58716288,4.65099850,1.51426160,-1.84509856,1.01286685e+03,7.48259209,-4.48626077e-01,-1
5.78703481e+02,1.99981820e+02,-3.15803846e-05,6.58715820,4.65163438,1.51298748,-1.84509856,1.01541020e+03,7.48366981,-4.45395940e-01,-1
5.86752462e+02,1.99981566e+02,-3.15787842e-05,6.58715352,4.65227027,1.51171337,-1.84509856,1.01795354e+03,7.48474753,-4.42165802e-01,-1
5.94801443e+02,1.99981312e+02,-3.15771837e-05,6.58714885,4.65290616,1.51043925,-1.84509856,1.02049688e+03,7.48582525,-4.38935665e-01,-1
6.03593589e+02,1.99981035e+02,-3.15708780e-05,6.58714379,4.65358577,1.50907751,-1.84509856,1.02308628e+03,7.48697821,-4.35480045e-01,-1
6.12535150e+02,1.99980753e+02,-3.15636261e-05,6.58713866,4.65427416,1.50769816,-1.84509856,1.02568493e+03,7.48814630,-4.31979091e-01,-1
6.21476711e+02,1.99980471e+02,-3.15563743e-05,6.58713352,4.65496255,1.50631880,-1.84509856,1.02828358e+03,7.48931440,-4.28478137e-01,-1
6.30418273e+02,1.99980189e+02,-3.15491225e-05,6.58712838,4.65565095,1.50493945,-1.84509856,1.03088223e+03,7.49048249,-4.24977183e-01,-1
6.39359834e+02,1.99979907e+02,-3.15418707e-05,6.58712325,4.65633934,1.50356009,-1.84509856,1.03348088e+03,7.49165058,-4.21476229e-01,-1
6.48301395e+02,1.99979625e+02,-3.15346189e-05,6.58711811,4.65702774,1.50218074,-1.84509856,1.03607953e+03,7.49281867,-4.17975275e-01,-1
6.57242956e+02,1.99979344e+02,-3.15273671e-05,6.58711298,4.65771613,1.50080138,-1.84509857,1.03867818e+03,7.49398676,-4.14474321e-01,-1
6.66914829e+02,1.99979039e+02,-3.15169577e-05,6.58710587,4.65844271,1.49934468,-1.84509857,1.04134373e+03,7.49522040,-4.10777104e-01,-1
6.76825147e+02,1.99978728e+02,-3.15055174e-05,6.58709812,4.65918175,1.49786272,-1.84509857,1.04403113e+03,7.49647544,-4.07015807e-01,-1
6.86735465e+02,1.99978416e+02,-3.14940771e-05,6.58709036,4.65992079,1.49638076,-1.84509857,1.04671853e+03,7.49773048,-4.03254510e-01,-1
6.96645783e+02,1.99978105e+02,-3.14826368e-05,6.58708261,4.66065983,1.49489880,-1.84509858,1.04940593e+03,7.49898551,-3.99493213e-01,-1
7.06556102e+02,1.99977793e+02,-3.14711964e-05,6.58707486,4.66139887,1.49341684,-1.84509858,1.05209332e+03,7.50024055,-3.95731915e-01,-1
7.16466420e+02,1.99977482e+02,-3.14597561e-05,6.58706710,4.66213791,1.49193487,-1.84509858,1.05478072e+03,7.50149559,-3.91970618e-01,-1
7.26376738e+02,1.99977170e+02,-3.14483158e-05,6.58705935,4.66287696,1.49045291,-1.84509858,1.05746812e+03,7.50275063,-3.88209321e-01,-1
7.36391003e+02,1.99976855e+02,-3.14362533e-05,6.58705104,4.66362078,1.48896111,-1.84509859,1.06015586e+03,7.50401383,-3.84423579e-01,-1
7.47459714e+02,1.99976509e+02,-3.14178793e-05,6.58703709,4.66441314,1.48736941,-1.84509859,1.06284704e+03,7.50535981,-3.80389865e-01,-1
7.58528424e+02,1.99976163e+02,-3.13995054e-05,6.58702313,4.66520551,1.48577771,-1.84509859,1.06553822e+03,7.50670580,-3.76356151e-01,-1
7.69597134e+02,1.99975816e+02,-3.13811314e-05,6.58700918,4.66599787,1.48418601,-1.84509860,1.06822941e+03,7.50805179,-3.72322437e-01,-1
7.80665844e+02,1.99975470e+02,-3.13627575e-05,6.58699522,4.66679023,1.48259431,-1.84509860,1.07092059e+03,7.50939778,-3.68288723e-01,-1
7.91734554e+02,1.99975124e+02,-3.13443835e-05,6.58698126,4.66758259,1.48100261,-1.84509861,1.07361178e+03,7.51074377,-3.64255009e-01,-1
8.02803264e+02,1.99974777e+02,-3.13260096e-05,6.58696731,4.66837495,1.47941091,-1.84509861,1.07630296e+03,7.51208976,-3.60221295e-01,-1
8.13871974e+02,1.99974431e+02,-3.13076356e-05,6.58695335,4.66916731,1.47781921,-1.84509862,1.07899414e+03,7.51343574,-3.56187581e-01,-1
8.24940684e+02,1.99974085e+02,-3.12892617e-05,6.58693940,4.66995967,1.47622751,-1.84509862,1.08168533e+03,7.51478173,-3.52153867e-01,-1
8.37018946e+02,1.99973710e+02,-3.12543947e-05,6.58691748,4.67079531,1.47454527,-1.84509862,1.08398543e+03,7.51620096,-3.47900440e-01,-1
8.49268028e+02,1.99973329e+02,-3.12167369e-05,6.58689421,4.67163828,1.47284771,-1.84509862,1.08621936e+03,7.51763259,-3.43609835e-01,-1
8.61517111e+02,1.99972949e+02,-3.11790792e-05,6.58687095,4.67248124,1.47115014,-1.84509862,1.08845330e+03,7.51906421,-3.39319231e-01,-1
8.73766194e+02,1.99972569e+02,-3.11414215e-05,6.58684768,4.67332421,1.46945258,-1.84509862,1.09068723e+03,7.52049584,-3.35028627e-01,-1
8.86015277e+02,1.99972188e+02,-3.11037638e-05,6.58682441,4.67416717,1.46775502,-1.84509862,1.09292116e+03,7.52192746,-3.30738023e-01,-1
8.98264360e+02,1.99971808e+02,-3.10661061e-05,6.58680115,4.67501013,1.46605746,-1.84509863,1.09515509e+03,7.52335908,-3.26447419e-01,-1
9.10948143e+02,1.99971416e+02,-3.10250124e-05,6.58677334,4.67586755,1.46432872,-1.84509863,1.09732148e+03,7.52481485,-3.22084819e-01,-1
9.24263807e+02,1.99971006e+02,-3.09789240e-05,6.58673893,4.67674598,1.46255465,-1.84509863,1.09938969e+03,7.52630571,-3.17617566e-01,-1
9.37579472e+02,1.99970596e+02,-3.09328356e-05,6.58670452,4.67762441,1.46078059,-1.84509863,1.10145789e+03,7.52779656,-3.13150314e-01,-1
9.50895136e+02,1.99970186e+02,-3.08867472e-05,6.58667012,4.67850284,1.45900652,-1.84509863,1.10352610e+03,7.52928742,-3.08683061e-01,-1
9.64210800e+02,1.99969776e+02,-3.08406588e-05,6.58663571,4.67938127,1.45723246,-1.84509863,1.10559431e+03,7.53077827,-3.04215808e-01,-1
9.77526465e+02,1.99969366e+02,-3.07945704e-05,6.58660130,4.68025970,1.45545839,-1.84509864,1.10766251e+03,7.53226913,-2.99748555e-01,-1
9.91730225e+02,1.99968932e+02,-3.07489941e-05,6.58655497,4.68115468,1.45364528,-1.84509864,1.10982157e+03,7.53378609,-2.95203000e-01,-1
1.00619267e+03,1.99968491e+02,-3.07035669e-05,6.58650518,4.68205448,1.45182078,-1.84509865,1.11200710e+03,7.53531065,-2.90634636e-01,-1
1.02065512e+03,1.99968050e+02,-3.06581398e-05,6.58645538,4.68295428,1.44999629,-1.84509865,1.11419262e+03,7.53683522,-2.86066272e-01,-1
1.03511756e+03,1.99967609e+02,-3.06127126e-05,6.58640559,4.68385407,1.44817180,-1.84509866,1.11637815e+03,7.53835978,-2.81497908e-01,-1
1.04958001e+03,1.99967168e+02,-3.05672855e-05,6.58635579,4.68475387,1.44634731,-1.84509866,1.11856367e+03,7.53988434,-2.76929544e-01,-1
1.06404245e+03,1.99966727e+02,-3.05218583e-05,6.58630599,4.68565367,1.44452282,-1.84509867,1.12074920e+03,7.54140891,-2.72361180e-01,-1
1.07926991e+03,1.99966265e+02,-3.04711087e-05,6.58624322,4.68655682,1.44268512,-1.84509868,1.12277236e+03,7.54293617,-2.67785074e-01,-1
1.09512162e+03,1.99965788e+02,-3.04160160e-05,6.58616985,4.68746271,1.44083665,-1.84509869,1.12466305e+03,7.54446563,-2.63202652e-01,-1
1.11097332e+03,1.99965310e+02,-3.03609234e-05,6.58609647,4.68836860,1.43898818,-1.84509870,1.12655373e+03,7.54599509,-2.58620229e-01,-1
1.12682502e+03,1.99964833e+02,-3.03058307e-05,6.58602310,4.68927450,1.43713971,-1.84509871,1.12844442e+03,7.54752455,-2.54037806e-01,-1
1.14267672e+03,1.99964355e+02,-3.02507380e-05,6.58594973,4.69018039,1.43529124,-1.84509872,1.13033511e+03,7.54905402,-2.49455383e-01,-1
1.15852842e+03,1.99963878e+02,-3.01956453e-05,6.58587636,4.69108628,1.43344277,-1.84509873,1.13222579e+03,7.55058348,-2.44872960e-01,-1
1.17438012e+03,1.99963400e+02,-3.01405527e-05,6.58580299,4.69199218,1.43159430,-1.84509874,1.13411648e+03,7.55211294,-2.40290538e-01,-1
1.19129454e+03,1.99962897e+02,-3.00609370e-05,6.58570844,4.69289383,1.42974372,-1.84509874,1.13509460e+03,7.55362949,-2.35747103e-01,-1
1.20858878e+03,1.99962384e+02,-2.99725566e-05,6.58560633,4.69379397,1.42789238,-1.84509874,1.13574657e+03,7.55514144,-2.31217602e-01,-1
1.22588302e+03,1.99961872e+02,-2.98841763e-05,6.58550421,4.69469410,1.42604105,-1.84509874,1.13639854e+03,7.55665338,-2.26688102e-01,-1
1.24317726e+03,1.99961359e+02,-2.97957959e-05,6.58540210,4.69559424,1.42418972,-1.84509874,1.13705051e+03,7.55816532,-2.22158601e-01,-1
1.26047150e+03,1.99960846e+02,-2.97074156e-05,6.58529998,4.69649438,1.42233838,-1.84509874,1.13770248e+03,7.55967726,-2.17629101e-01,-1
1.27812161e+03,1.99960325e+02,-2.96224080e-05,6.58518885,4.69738335,1.42050489,-1.84509875,1.13845060e+03,7.56116712,-2.13166250e-01,-1
1.29693879e+03,1.99959776e+02,-2.95484614e-05,6.58504815,4.69823567,1.41872989,-1.84509876,1.13951403e+03,7.56258454,-2.08921979e-01,-1
1.31575598e+03,1.99959227e+02,-2.94745147e-05,6.58490744,4.69908799,1.41695489,-1.84509877,1.14057745e+03,7.56400195,-2.04677709e-01,-1
1.33457316e+03,1.99958677e+02,-2.94005681e-05,6.58476674,4.69994032,1.41517989,-1.84509878,1.14164088e+03,7.56541937,-2.00433438e-01,-1
1.35339035e+03,1.99958128e+02,-2.93266215e-05,6.58462604,4.70079264,1.41340489,-1.84509879,1.14270431e+03,7.56683679,-1.96189167e-01,-1
1.37220753e+03,1.99957579e+02,-2.92526748e-05,6.58448534,4.70164496,1.41162989,-1.84509880,1.14376773e+03,7.56825421,-1.91944896e-01,-1
1.39133185e+03,1.99957022e+02,-2.91775385e-05,6.58433619,4.70248205,1.40988115,-1.84509881,1.14473338e+03,7.56964254,-1.87788027e-01,-1
1.41201620e+03,1.99956430e+02,-2.90963595e-05,6.58414415,4.70324175,1.40826572,-1.84509882,1.14520235e+03,7.57088312,-1.84075095e-01,-1
1.43270054e+03,1.99955837e+02,-2.90151804e-05,6.58395212,4.70400146,1.40665030,-1.84509883,1.14567132e+03,7.57212370,-1.80362163e-01,-1
1.45338489e+03,1.99955244e+02,-2.89340013e-05,6.58376008,4.70476116,1.40503487,-1.84509884,1.14614029e+03,7.57336428,-1.76649232e-01,-1
1.47406923e+03,1.99954652e+02,-2.88528223e-05,6.58356804,4.70552086,1.40341945,-1.84509886,1.14660926e+03,7.57460486,-1.72936300e-01,-1
1.49475358e+03,1.99954059e+02,-2.87716432e-05,6.58337601,4.70628057,1.40180402,-1.84509887,1.14707822e+03,7.57584544,-1.69223368e-01,-1
1.51543792e+03,1.99953466e+02,-2.86904642e-05,6.58318397,4.70704027,1.40018860,-1.84509888,1.14754719e+03,7.57708602,-1.65510437e-01,-1
1.53719986e+03,1.99952850e+02,-2.85952518e-05,6.58296498,4.70774240,1.39867484,-1.84509889,1.14722890e+03,7.57821908,-1.62120293e-01,-1
1.55988379e+03,1.99952214e+02,-2.84880325e-05,6.58272294,4.70839528,1.39724807,-1.84509889,1.14623704e+03,7.57926015,-1.59006326e-01,-1
1.58256772e+03,1.99951578e+02,-2.83808132e-05,6.58248090,4.70904815,1.39582130,-1.84509890,1.14524517e+03,7.58030122,-1.55892360e-01,-1
1.60525165e+03,1.99950942e+02,-2.82735939e-05,6.58223886,4.70970102,1.39439454,-1.84509890,1.14425330e+03,7.58134229,-1.52778393e-01,-1
1.62793557e+03,1.99950306e+02,-2.81663745e-05,6.58199681,4.71035390,1.39296777,-1.84509891,1.14326143e+03,7.58238336,-1.49664426e-01,-1
1.65061950e+03,1.99949670e+02,-2.80591552e-05,6.58175477,4.71100677,1.39154100,-1.84509891,1.14226957e+03,7.58342443,-1.46550459e-01,-1
1.67507303e+03,1.99948995e+02,-2.79706762e-05,6.58148236,4.71154951,1.39031931,-1.84509892,1.14156974e+03,7.58426907,-1.44025680e-01,-1
1.69990206e+03,1.99948312e+02,-2.78861737e-05,6.58120351,4.71206889,1.38914113,-1.84509894,1.14093189e+03,7.58507202,-1.41625921e-01,-1
1.72473108e+03,1.99947629e+02,-2.78016712e-05,6.58092465,4.71258826,1.38796295,-1.84509895,1.14029403e+03,7.58587498,-1.39226162e-01,-1
1.74956010e+03,1.99946946e+02,-2.77171686e-05,6.58064580,4.71310764,1.38678477,-1.84509897,1.13965618e+03,7.58667794,-1.36826403e-01,-1
1.77438913e+03,1.99946263e+02,-2.76326661e-05,6.58036695,4.71362701,1.38560660,-1.84509899,1.13901832e+03,7.58748089,-1.34426644e-01,-1
1.79921815e+03,1.99945580e+02,-2.75481636e-05,6.58008809,4.71414639,1.38442842,-1.84509900,1.13838047e+03,7.58828385,-1.32026885e-01,-1
1.82546898e+03,1.99944866e+02,-2.74664441e-05,6.57980709,4.71459804,1.38338462,-1.84509902,1.13753558e+03,7.58897395,-1.29965077e-01,-1
1.85283425e+03,1.99944128e+02,-2.73869061e-05,6.57952441,4.71499661,1.38244614,-1.84509904,1.13652842e+03,7.58957558,-1.28168166e-01,-1
1.88019953e+03,1.99943390e+02,-2.73073680e-05,6.57924173,4.71539518,1.38150766,-1.84509906,1.13552126e+03,7.59017722,-1.26371254e-01,-1
1.90756481e+03,1.99942652e+02,-2.72278300e-05,6.57895905,4.71579374,1.38056919,-1.84509907,1.13451410e+03,7.59077886,-1.24574343e-01,-1
1.93493009e+03,1.99941914e+02,-2.71482920e-05,6.57867636,4.71619231,1.37963071,-1.84509909,1.13350694e+03,7.59138050,-1.22777431e-01,-1
1.96229536e+03,1.99941176e+02,-2.70687540e-05,6.57839368,4.71659088,1.37869223,-1.84509911,1.13249978e+03,7.59198213,-1.20980519e-01,-1
1.98966064e+03,1.99940438e+02,-2.69892160e-05,6.57811100,4.71698945,1.37775376,-1.84509913,1.13149262e+03,7.59258377,-1.19183608e-01,-1
2.01924242e+03,1.99939652e+02,-2.69165459e-05,6.57785930,4.71733252,1.37694176,-1.84509915,1.13042945e+03,7.59310658,-1.17621173e-01,-1
2.04960270e+03,1.99938849e+02,-2.68462881e-05,6.57761849,4.71765611,1.37617418,-1.84509917,1.12934661e+03,7.59360170,-1.16141094e-01,-1
2.07996298e+03,1.99938046e+02,-2.67760303e-05,6.57737768,4.71797970,1.37540660,-1.84509920,1.12826378e+03,7.59409681,-1.14661015e-01,-1
2.11032326e+03,1.99937243e+02,-2.67057725e-05,6.57713687,4.71830328,1.37463902,-1.84509922,1.12718094e+03,7.59459193,-1.13180936e-01,-1
2.14068354e+03,1.99936440e+02,-2.66355147e-05,6.57689606,4.71862687,1.37387144,-1.84509924,1.12609811e+03,7.59508705,-1.11700857e-01,-1
2.17104382e+03,1.99935637e+02,-2.65652569e-05,6.57665525,4.71895046,1.37310386,-1.84509926,1.12501527e+03,7.59558217,-1.10220777e-01,-1
2.20140410e+03,1.99934833e+02,-2.64949990e-05,6.57641444,4.71927404,1.37233629,-1.84509929,1.12393243e+03,7.59607729,-1.08740698e-01,-1
2.23305161e+03,1.99934002e+02,-2.64289201e-05,6.57620187,4.71959463,1.37158883,-1.84509931,1.12293887e+03,7.59657877,-1.07241364e-01,-1
2.26695953e+03,1.99933121e+02,-2.63701793e-05,6.57603887,4.71990994,1.37087670,-1.84509934,1.12210208e+03,7.59709142,-1.05708215e-01,-1
2.30086745e+03,1.99932240e+02,-2.63114385e-05,6.57587587,4.72022525,1.37016458,-1.84509937,1.12126529e+03,7.59760407,-1.04175067e-01,-1
2.33477537e+03,1.99931359e+02,-2.62526977e-05,6.57571287,4.72054057,1.36945245,-1.84509939,1.12042850e+03,7.59811672,-1.02641919e-01,-1
2.36868330e+03,1.99930478e+02,-2.61939569e-05,6.57554987,4.72085588,1.36874033,-1.84509942,1.11959171e+03,7.59862937,-1.01108771e-01,-1
2.40259122e+03,1.99929597e+02,-2.61352161e-05,6.57538688,4.72117119,1.36802820,-1.84509945,1.11875492e+03,7.59914202,-9.95756229e-02,-1
2.43649914e+03,1.99928716e+02,-2.60764753e-05,6.57522388,4.72148651,1.36731608,-1.84509947,1.11791812e+03,7.59965467,-9.80424747e-02,-1
2.47040706e+03,1.99927835e+02,-2.60177345e-05,6.57506088,4.72180182,1.36660395,-1.84509950,1.11708133e+03,7.60016732,-9.65093266e-02,-1
2.50614626e+03,1.99926913e+02,-2.59633274e-05,6.57493655,4.72214738,1.36585068,-1.84509953,1.11646151e+03,7.60074639,-9.47834800e-02,-1
2.54425064e+03,1.99925938e+02,-2.59145173e-05,6.57486217,4.72253199,1.36504425,-1.84509956,1.11612190e+03,7.60141125,-9.28087529e-02,-1
2.58235503e+03,1.99924964e+02,-2.58657073e-05,6.57478778,4.72291661,1.36423783,-1.84509959,1.11578229e+03,7.60207611,-9.08340258e-02,-1
2.62045941e+03,1.99923990e+02,-2.58168973e-05,6.57471339,4.72330122,1.36343140,-1.84509962,1.11544268e+03,7.60274097,-8.88592986e-02,-1
2.65856380e+03,1.99923015e+02,-2.57680873e-05,6.57463901,4.72368584,1.36262497,-1.84509965,1.11510307e+03,7.60340583,-8.68845715e-02,-1
2.69666819e+03,1.99922041e+02,-2.57192773e-05,6.57456462,4.72407046,1.36181855,-1.84509967,1.11476346e+03,7.60407069,-8.49098444e-02,-1
2.73477257e+03,1.99921066e+02,-2.56704673e-05,6.57449024,4.72445507,1.36101212,-1.84509970,1.11442385e+03,7.60473554,-8.29351173e-02,-1
2.77287696e+03,1.99920092e+02,-2.56216573e-05,6.57441585,4.72483969,1.36020570,-1.84509973,1.11408425e+03,7.60540040,-8.09603902e-02,-1
2.81098134e+03,1.99919118e+02,-2.55728473e-05,6.57434146,4.72522431,1.35939927,-1.84509976,1.11374464e+03,7.60606526,-7.89856631e-02,-1
2.85384084e+03,1.99918039e+02,-2.55275671e-05,6.57434672,4.72577156,1.35830740,-1.84509980,1.11404238e+03,7.60704217,-7.60808472e-02,-1
2.89683643e+03,1.99916957e+02,-2.54823879e-05,6.57435425,4.72632346,1.35720736,-1.84509984,1.11435836e+03,7.60802801,-7.31494105e-02,-1
2.93983203e+03,1.99915875e+02,-2.54372088e-05,6.57436179,4.72687537,1.35610731,-1.84509988,1.11467434e+03,7.60901384,-7.02179738e-02,-1
2.98282763e+03,1.99914793e+02,-2.53920296e-05,6.57436932,4.72742727,1.35500727,-1.84509992,1.11499032e+03,7.60999968,-6.72865371e-02,-1
3.02582322e+03,1.99913711e+02,-2.53468504e-05,6.57437686,4.72797918,1.35390723,-1.84509995,1.11530630e+03,7.61098552,-6.43551005e-02,-1
3.06881882e+03,1.99912629e+02,-2.53016713e-05,6.57438439,4.72853108,1.35280719,-1.84509999,1.11562228e+03,7.61197136,-6.14236638e-02,-1
