star_age,star_mass,star_mdot,log_L,log_Teff,log_R,log_surf_z,v_wind_Km_per_s,log_center_T,log_center_Rho,phase,x
3.87024407e+02,2.24986699e+02,-3.60384302e-05,6.64797186,4.63004740,1.58656829,-1.84509853,9.82058117e+02,7.43818325,-6.16609623e-01,-1,-1.0
3.93186268e+02,2.24986473e+02,-3.60819037e-05,6.64812713,4.63055853,1.58562365,-1.84509853,9.85096035e+02,7.43911884,-6.13802126e-01,-1,-0.9990623118660349
3.99348128e+02,2.24986248e+02,-3.61253773e-05,6.64828241,4.63106967,1.58467902,-1.84509853,9.88133954e+02,7.44005442,-6.10994629e-01,-1,-0.9981246238842459
4.05509988e+02,2.24986023e+02,-3.61688508e-05,6.64843768,4.63158080,1.58373439,-1.84509853,9.91171872e+02,7.44099001,-6.08187132e-01,-1,-0.997186935902457
4.11671848e+02,2.24985797e+02,-3.62123244e-05,6.64859296,4.63209194,1.58278975,-1.84509853,9.94209791e+02,7.44192560,-6.05379634e-01,-1,-0.996249247920668
4.17833709e+02,2.24985572e+02,-3.62557979e-05,6.64874823,4.63260307,1.58184512,-1.84509853,9.97247709e+02,7.44286118,-6.02572137e-01,-1,-0.9953115597867029
4.23995569e+02,2.24985346e+02,-3.62992715e-05,6.64890351,4.63311421,1.58090049,-1.84509853,1.00028563e+03,7.44379677,-5.99764640e-01,-1,-0.994373871804914
4.30157429e+02,2.24985121e+02,-3.63427450e-05,6.64905878,4.63362535,1.57995585,-1.84509853,1.00332355e+03,7.44473236,-5.96957143e-01,-1,-0.993436183823125
4.36319289e+02,2.24984895e+02,-3.63862185e-05,6.64921406,4.63413648,1.57901122,-1.84509853,1.00636146e+03,7.44566795,-5.94149646e-01,-1,-0.9924984958413361
4.42481150e+02,2.24984670e+02,-3.64296921e-05,6.64936934,4.63464762,1.57806659,-1.84509854,1.00939938e+03,7.44660353,-5.91342148e-01,-1,-0.991560807707371
4.48643010e+02,2.24984445e+02,-3.64731656e-05,6.64952461,4.63515875,1.57712195,-1.84509854,1.01243730e+03,7.44753912,-5.88534651e-01,-1,-0.990623119725582
4.54804870e+02,2.24984219e+02,-3.65166392e-05,6.64967989,4.63566989,1.57617732,-1.84509854,1.01547522e+03,7.44847471,-5.85727154e-01,-1,-0.9896854317437931
4.60966730e+02,2.24983994e+02,-3.65601127e-05,6.64983516,4.63618102,1.57523269,-1.84509854,1.01851314e+03,7.44941029,-5.82919657e-01,-1,-0.9887477437620041
4.67585767e+02,2.24983750e+02,-3.66077207e-05,6.64998698,4.63672743,1.57421579,-1.84509854,1.02185362e+03,7.45040470,-5.79935717e-01,-1,-0.9877404843556047
4.74791256e+02,2.24983483e+02,-3.66606321e-05,6.65013438,4.63731907,1.57310621,-1.84509854,1.02558222e+03,7.45147454,-5.76725442e-01,-1,-0.9866439809559474
4.81996744e+02,2.24983215e+02,-3.67135435e-05,6.65028177,4.63791071,1.57199663,-1.84509854,1.02931082e+03,7.45254439,-5.73515167e-01,-1,-0.9855474777084662
4.89202232e+02,2.24982948e+02,-3.67664549e-05,6.65042917,4.63850235,1.57088704,-1.84509854,1.03303942e+03,7.45361424,-5.70304892e-01,-1,-0.984450974460985
4.96407721e+02,2.24982681e+02,-3.68193663e-05,6.65057656,4.63909399,1.56977746,-1.84509854,1.03676802e+03,7.45468409,-5.67094618e-01,-1,-0.9833544710613276
5.03613209e+02,2.24982414e+02,-3.68722777e-05,6.65072396,4.63968563,1.56866787,-1.84509854,1.04049662e+03,7.45575394,-5.63884343e-01,-1,-0.9822579678138464
5.10818698e+02,2.24982147e+02,-3.69251891e-05,6.65087135,4.64027727,1.56755829,-1.84509854,1.04422522e+03,7.45682378,-5.60674068e-01,-1,-0.981161464414189
5.18024186e+02,2.24981879e+02,-3.69781006e-05,6.65101875,4.64086891,1.56644871,-1.84509854,1.04795382e+03,7.45789363,-5.57463793e-01,-1,-0.9800649611667078
5.25229675e+02,2.24981612e+02,-3.70310120e-05,6.65116614,4.64146055,1.56533912,-1.84509854,1.05168242e+03,7.45896348,-5.54253518e-01,-1,-0.9789684577670505
5.32435163e+02,2.24981345e+02,-3.70839234e-05,6.65131354,4.64205219,1.56422954,-1.84509854,1.05541102e+03,7.46003333,-5.51043243e-01,-1,-0.9778719545195693
5.40559431e+02,2.24981041e+02,-3.71248628e-05,6.65145011,4.64271115,1.56297990,-1.84509854,1.05918075e+03,7.46121423,-5.47500640e-01,-1,-0.9766356348913349
5.48705531e+02,2.24980736e+02,-3.71655177e-05,6.65158642,4.64337171,1.56172694,-1.84509854,1.06295145e+03,7.46239778,-5.43950140e-01,-1,-0.9753959929539247
5.56851631e+02,2.24980432e+02,-3.72061726e-05,6.65172273,4.64403227,1.56047398,-1.84509854,1.06672215e+03,7.46358132,-5.40399639e-01,-1,-0.9741563510165143
5.64997731e+02,2.24980127e+02,-3.72468275e-05,6.65185904,4.64469283,1.55922102,-1.84509854,1.07049285e+03,7.46476487,-5.36849139e-01,-1,-0.972916709079104
5.73143831e+02,2.24979822e+02,-3.72874824e-05,6.65199536,4.64535339,1.55796805,-1.84509855,1.07426355e+03,7.46594842,-5.33298638e-01,-1,-0.9716770671416937
5.81289931e+02,2.24979518e+02,-3.73281373e-05,6.65213167,4.64601395,1.55671509,-1.84509855,1.07803425e+03,7.46713196,-5.29748138e-01,-1,-0.9704374252042834
5.89436031e+02,2.24979213e+02,-3.73687923e-05,6.65226798,4.64667451,1.55546213,-1.84509855,1.08180495e+03,7.46831551,-5.26197637e-01,-1,-0.9691977832668731
5.97660426e+02,2.24978905e+02,-3.74084800e-05,6.65240322,4.64734048,1.55419779,-1.84509855,1.08557893e+03,7.46950794,-5.22620485e-01,-1,-0.9679462266997025
6.06702266e+02,2.24978565e+02,-3.74380702e-05,6.65252726,4.64806303,1.55281473,-1.84509855,1.08938717e+03,7.47079316,-5.18765069e-01,-1,-0.9665702745194747
6.15744106e+02,2.24978225e+02,-3.74676604e-05,6.65265130,4.64878557,1.55143167,-1.84509855,1.09319541e+03,7.47207837,-5.14909653e-01,-1,-0.965194322339247
6.24785945e+02,2.24977885e+02,-3.74972505e-05,6.65277534,4.64950811,1.55004861,-1.84509855,1.09700365e+03,7.47336359,-5.11054236e-01,-1,-0.9638183703111952
6.33827785e+02,2.24977545e+02,-3.75268407e-05,6.65289938,4.65023065,1.54866554,-1.84509855,1.10081189e+03,7.47464881,-5.07198820e-01,-1,-0.9624424181309674
6.42869625e+02,2.24977205e+02,-3.75564309e-05,6.65302342,4.65095319,1.54728248,-1.84509855,1.10462013e+03,7.47593403,-5.03343404e-01,-1,-0.9610664659507395
6.51911465e+02,2.24976865e+02,-3.75860210e-05,6.65314746,4.65167573,1.54589942,-1.84509855,1.10842837e+03,7.47721924,-4.99487988e-01,-1,-0.9596905137705117
6.61082281e+02,2.24976520e+02,-3.76139895e-05,6.65326960,4.65240665,1.54449865,-1.84509855,1.11223764e+03,7.47851816,-4.95591477e-01,-1,-0.9582949345222981
6.71001594e+02,2.24976145e+02,-3.76325471e-05,6.65338070,4.65318618,1.54299515,-1.84509855,1.11605291e+03,7.47989660,-4.91456472e-01,-1,-0.9567854519005405
6.80920907e+02,2.24975771e+02,-3.76511046e-05,6.65349180,4.65396570,1.54149165,-1.84509855,1.11986818e+03,7.48127503,-4.87321467e-01,-1,-0.955275969278783
6.90840220e+02,2.24975397e+02,-3.76696622e-05,6.65360291,4.65474523,1.53998815,-1.84509856,1.12368346e+03,7.48265347,-4.83186463e-01,-1,-0.9537664866570255
7.00759533e+02,2.24975023e+02,-3.76882197e-05,6.65371401,4.65552475,1.53848465,-1.84509856,1.12749873e+03,7.48403191,-4.79051458e-01,-1,-0.9522570040352678
7.10678846e+02,2.24974648e+02,-3.77067773e-05,6.65382511,4.65630428,1.53698115,-1.84509856,1.13131400e+03,7.48541034,-4.74916454e-01,-1,-0.9507475214135103
7.20598159e+02,2.24974274e+02,-3.77253348e-05,6.65393621,4.65708381,1.53547764,-1.84509856,1.13512927e+03,7.48678878,-4.70781449e-01,-1,-0.9492380387917527
7.31332700e+02,2.24973869e+02,-3.77331475e-05,6.65403367,4.65791094,1.53387211,-1.84509856,1.13889919e+03,7.48824435,-4.66415484e-01,-1,-0.9476044979314086
7.42207846e+02,2.24973458e+02,-3.77391070e-05,6.65412876,4.65874628,1.53224897,-1.84509856,1.14266130e+03,7.48971322,-4.62009685e-01,-1,-0.9459495603469129
7.53082991e+02,2.24973047e+02,-3.77450665e-05,6.65422386,4.65958163,1.53062583,-1.84509856,1.14642341e+03,7.49118210,-4.57603885e-01,-1,-0.9442946229145934
7.63958137e+02,2.24972636e+02,-3.77510259e-05,6.65431896,4.66041697,1.52900269,-1.84509857,1.15018551e+03,7.49265097,-4.53198086e-01,-1,-0.9426396853300978
7.74833282e+02,2.24972226e+02,-3.77569854e-05,6.65441406,4.66125231,1.52737955,-1.84509857,1.15394762e+03,7.49411984,-4.48792286e-01,-1,-0.9409847478977782
7.85708427e+02,2.24971815e+02,-3.77629449e-05,6.65450916,4.66208766,1.52575642,-1.84509857,1.15770973e+03,7.49558872,-4.44386487e-01,-1,-0.9393298104654587
7.96583573e+02,2.24971404e+02,-3.77689044e-05,6.65460426,4.66292300,1.52413328,-1.84509857,1.16147183e+03,7.49705759,-4.39980687e-01,-1,-0.9376748728809631
8.08559373e+02,2.24970952e+02,-3.77637682e-05,6.65468113,4.66381539,1.52238693,-1.84509858,1.16521891e+03,7.49861871,-4.35298551e-01,-1,-0.9358524420350322
8.20576479e+02,2.24970499e+02,-3.77582157e-05,6.65475733,4.66470992,1.52063597,-1.84509858,1.16896542e+03,7.50018328,-4.30606043e-01,-1,-0.9340237254020538
8.32593585e+02,2.24970046e+02,-3.77526631e-05,6.65483352,4.66560446,1.51888500,-1.84509859,1.17271193e+03,7.50174786,-4.25913536e-01,-1,-0.9321950087690755
8.44610690e+02,2.24969592e+02,-3.77471105e-05,6.65490971,4.66649899,1.51713403,-1.84509859,1.17645844e+03,7.50331243,-4.21221029e-01,-1,-0.9303662922882732
8.56627796e+02,2.24969139e+02,-3.77415580e-05,6.65498590,4.66739352,1.51538306,-1.84509859,1.18020495e+03,7.50487701,-4.16528522e-01,-1,-0.9285375756552948
8.68644902e+02,2.24968686e+02,-3.77360054e-05,6.65506209,4.66828805,1.51363209,-1.84509860,1.18395147e+03,7.50644158,-4.11836014e-01,-1,-0.9267088590223165
8.80662007e+02,2.24968232e+02,-3.77304528e-05,6.65513828,4.66918258,1.51188112,-1.84509860,1.18769798e+03,7.50800616,-4.07143507e-01,-1,-0.9248801425415143
8.93237011e+02,2.24967759e+02,-3.77141013e-05,6.65520610,4.67010420,1.51007180,-1.84509860,1.19124696e+03,7.50961494,-4.02318819e-01,-1,-0.9229665271523707
9.06410307e+02,2.24967264e+02,-3.76861688e-05,6.65526495,4.67105487,1.50819989,-1.84509860,1.19458410e+03,7.51127111,-3.97352379e-01,-1,-0.9209618660046412
9.19583602e+02,2.24966769e+02,-3.76582363e-05,6.65532379,4.67200553,1.50632798,-1.84509861,1.19792124e+03,7.51292729,-3.92385938e-01,-1,-0.9189572050090878
9.32756898e+02,2.24966274e+02,-3.76303038e-05,6.65538264,4.67295620,1.50445607,-1.84509861,1.20125839e+03,7.51458347,-3.87419498e-01,-1,-0.9169525438613584
9.45930194e+02,2.24965779e+02,-3.76023713e-05,6.65544148,4.67390687,1.50258416,-1.84509861,1.20459553e+03,7.51623965,-3.82453058e-01,-1,-0.9149478827136288
9.59103490e+02,2.24965285e+02,-3.75744388e-05,6.65550033,4.67485753,1.50071225,-1.84509861,1.20793267e+03,7.51789583,-3.77486618e-01,-1,-0.9129432215658994
9.72927333e+02,2.24964767e+02,-3.75364762e-05,6.65554815,4.67583376,1.49878371,-1.84509861,1.21107322e+03,7.51959300,-3.72397435e-01,-1,-0.9108395626961364
9.87134181e+02,2.24964237e+02,-3.74926086e-05,6.65558948,4.67682504,1.49682182,-1.84509861,1.21409802e+03,7.52131432,-3.67235988e-01,-1,-0.908677619609357
1.00134103e+03,2.24963706e+02,-3.74487410e-05,6.65563081,4.67781631,1.49485993,-1.84509861,1.21712282e+03,7.52303563,-3.62074541e-01,-1,-0.9065156763704014
1.01554788e+03,2.24963176e+02,-3.74048733e-05,6.65567214,4.67880759,1.49289804,-1.84509861,1.22014763e+03,7.52475695,-3.56913094e-01,-1,-0.9043537329792698
1.02975472e+03,2.24962645e+02,-3.73610057e-05,6.65571347,4.67979887,1.49093615,-1.84509861,1.22317243e+03,7.52647826,-3.51751647e-01,-1,-0.9021917911098994
1.04448433e+03,2.24962097e+02,-3.73098270e-05,6.65574526,4.68080552,1.48893874,-1.84509862,1.22603800e+03,7.52822357,-3.46518282e-01,-1,-0.8999502961273068
1.05968818e+03,2.24961534e+02,-3.72520160e-05,6.65576838,4.68182612,1.48690911,-1.84509862,1.22875913e+03,7.52999065,-3.41219675e-01,-1,-0.8976366331388711
1.07489203e+03,2.24960970e+02,-3.71942050e-05,6.65579151,4.68284672,1.48487947,-1.84509862,1.23148026e+03,7.53175772,-3.35921068e-01,-1,-0.8953229701504355
1.09009587e+03,2.24960407e+02,-3.71363939e-05,6.65581463,4.68386732,1.48284983,-1.84509862,1.23420138e+03,7.53352479,-3.30622462e-01,-1,-0.893009308683761
1.10529972e+03,2.24959843e+02,-3.70785829e-05,6.65583776,4.68488792,1.48082019,-1.84509862,1.23692251e+03,7.53529187,-3.25323855e-01,-1,-0.8906956456953254
1.12140694e+03,2.24959250e+02,-3.70188277e-05,6.65584207,4.68592112,1.47875594,-1.84509863,1.23967380e+03,7.53707551,-3.19976770e-01,-1,-0.8882445113602333
1.13770923e+03,2.24958651e+02,-3.69586528e-05,6.65584231,4.68695705,1.47668421,-1.84509864,1.24243159e+03,7.53886274,-3.14619218e-01,-1,-0.8857636920283046
1.15401152e+03,2.24958052e+02,-3.68984778e-05,6.65584256,4.68799298,1.47461248,-1.84509864,1.24518939e+03,7.54064996,-3.09261665e-01,-1,-0.883282872696376
1.17031381e+03,2.24957453e+02,-3.68383029e-05,6.65584281,4.68902890,1.47254075,-1.84509865,1.24794719e+03,7.54243718,-3.03904113e-01,-1,-0.8808020533644472
1.18661609e+03,2.24956854e+02,-3.67781279e-05,6.65584305,4.69006483,1.47046902,-1.84509865,1.25070499e+03,7.54422441,-2.98546560e-01,-1,-0.8783212355542798
1.20366794e+03,2.24956231e+02,-3.67103915e-05,6.65582618,4.69109958,1.46839109,-1.84509866,1.25324495e+03,7.54600465,-2.93210057e-01,-1,-0.8757263510855855
1.22130803e+03,2.24955591e+02,-3.66367210e-05,6.65579588,4.69213340,1.46630828,-1.84509867,1.25561396e+03,7.54777940,-2.87890073e-01,-1,-0.8730419505327207
1.23894811e+03,2.24954950e+02,-3.65630504e-05,6.65576558,4.69316723,1.46422548,-1.84509868,1.25798296e+03,7.54955416,-2.82570090e-01,-1,-0.8703575515016171
1.25658820e+03,2.24954309e+02,-3.64893799e-05,6.65573527,4.69420106,1.46214267,-1.84509869,1.26035197e+03,7.55132891,-2.77250106e-01,-1,-0.8676731509487523
1.27422828e+03,2.24953668e+02,-3.64157093e-05,6.65570497,4.69523489,1.46005987,-1.84509870,1.26272097e+03,7.55310367,-2.71930122e-01,-1,-0.8649887519176488
1.29186837e+03,2.24953028e+02,-3.63420388e-05,6.65567467,4.69626871,1.45797706,-1.84509871,1.26508998e+03,7.55487842,-2.66610139e-01,-1,-0.862304351364784
1.31052402e+03,2.24952358e+02,-3.62369377e-05,6.65562006,4.69729172,1.45590374,-1.84509871,1.26636922e+03,7.55662727,-2.61368698e-01,-1,-0.8594654068257225
1.32956559e+03,2.24951677e+02,-3.61198925e-05,6.65555623,4.69831063,1.45383401,-1.84509871,1.26723434e+03,7.55836628,-2.56157104e-01,-1,-0.8565677344762382
1.34860717e+03,2.24950996e+02,-3.60028472e-05,6.65549239,4.69932953,1.45176429,-1.84509872,1.26809945e+03,7.56010529,-2.50945511e-01,-1,-0.8536700606049927
1.36764875e+03,2.24950315e+02,-3.58858020e-05,6.65542855,4.70034843,1.44969457,-1.84509872,1.26896457e+03,7.56184430,-2.45733918e-01,-1,-0.8507723867337472
1.38669032e+03,2.24949634e+02,-3.57687568e-05,6.65536471,4.70136733,1.44762485,-1.84509872,1.26982969e+03,7.56358331,-2.40522324e-01,-1,-0.8478747143842629
1.40708854e+03,2.24948915e+02,-3.56681203e-05,6.65526177,4.70233239,1.44564325,-1.84509873,1.27109945e+03,7.56521573,-2.35631232e-01,-1,-0.8447705922938735
1.42763491e+03,2.24948191e+02,-3.55692759e-05,6.65515455,4.70329158,1.44367128,-1.84509874,1.27241341e+03,7.56683650,-2.30775143e-01,-1,-0.8416439253104644
1.44818129e+03,2.24947467e+02,-3.54704315e-05,6.65504734,4.70425076,1.44169930,-1.84509875,1.27372737e+03,7.56845728,-2.25919053e-01,-1,-0.838517256805294
1.46872766e+03,2.24946744e+02,-3.53715871e-05,6.65494012,4.70520994,1.43972733,-1.84509876,1.27504133e+03,7.57007806,-2.21062964e-01,-1,-0.8353905898218849
1.48927404e+03,2.24946020e+02,-3.52727427e-05,6.65483290,4.70616912,1.43775536,-1.84509877,1.27635529e+03,7.57169884,-2.16206875e-01,-1,-0.8322639213167146
1.51081826e+03,2.24945268e+02,-3.51691314e-05,6.65469606,4.70706945,1.43588628,-1.84509878,1.27726362e+03,7.57320706,-2.11688537e-01,-1,-0.8289854053862946
1.53322033e+03,2.24944494e+02,-3.50614219e-05,6.65453374,4.70791919,1.43410565,-1.84509879,1.27782323e+03,7.57461850,-2.07460566e-01,-1,-0.8255763451664592
1.55562240e+03,2.24943719e+02,-3.49537125e-05,6.65437143,4.70876892,1.43232503,-1.84509880,1.27838283e+03,7.57602995,-2.03232596e-01,-1,-0.8221672849466238
1.57802447e+03,2.24942944e+02,-3.48460030e-05,6.65420912,4.70961866,1.43054440,-1.84509881,1.27894244e+03,7.57744140,-1.99004625e-01,-1,-0.8187582247267884
1.60042655e+03,2.24942169e+02,-3.47382936e-05,6.65404680,4.71046839,1.42876377,-1.84509883,1.27950204e+03,7.57885285,-1.94776654e-01,-1,-0.8153491629851918
1.62282862e+03,2.24941394e+02,-3.46305841e-05,6.65388449,4.71131813,1.42698315,-1.84509884,1.28006165e+03,7.58026429,-1.90548684e-01,-1,-0.8119401027653564
1.64649175e+03,2.24940587e+02,-3.45022903e-05,6.65368952,4.71208875,1.42534442,-1.84509884,1.27950075e+03,7.58152762,-1.86765949e-01,-1,-0.8083391393204697
1.67088188e+03,2.24939760e+02,-3.43621296e-05,6.65347572,4.71281376,1.42378749,-1.84509885,1.27829388e+03,7.58270554,-1.83239892e-01,-1,-0.8046275438322128
1.69527201e+03,2.24938934e+02,-3.42219688e-05,6.65326193,4.71353877,1.42223057,-1.84509885,1.27708700e+03,7.58388347,-1.79713835e-01,-1,-0.800915948343956
1.71966215e+03,2.24938108e+02,-3.40818081e-05,6.65304813,4.71426379,1.42067364,-1.84509885,1.27588013e+03,7.58506140,-1.76187778e-01,-1,-0.7972043513339379
1.74405228e+03,2.24937282e+02,-3.39416474e-05,6.65283433,4.71498880,1.41911672,-1.84509886,1.27467326e+03,7.58623932,-1.72661721e-01,-1,-0.793492755845681
1.76949867e+03,2.24936428e+02,-3.38169555e-05,6.65260221,4.71563796,1.41770233,-1.84509887,1.27367963e+03,7.58728096,-1.69544271e-01,-1,-0.7896204228029123
1.79602371e+03,2.24935546e+02,-3.37080604e-05,6.65235136,4.71620966,1.41643351,-1.84509888,1.27290376e+03,7.58818342,-1.66844093e-01,-1,-0.7855839449821778
1.82254876e+03,2.24934664e+02,-3.35991654e-05,6.65210051,4.71678136,1.41516468,-1.84509890,1.27212789e+03,7.58908588,-1.64143915e-01,-1,-0.781547465639682
1.84907380e+03,2.24933782e+02,-3.34902703e-05,6.65184966,4.71735306,1.41389586,-1.84509891,1.27135203e+03,7.58998833,-1.61443736e-01,-1,-0.7775109878189475
1.87559885e+03,2.24932900e+02,-3.33813752e-05,6.65159881,4.71792476,1.41262704,-1.84509893,1.27057616e+03,7.59089079,-1.58743558e-01,-1,-0.7734745084764516
1.90212389e+03,2.24932018e+02,-3.32724801e-05,6.65134796,4.71849646,1.41135821,-1.84509894,1.26980029e+03,7.59179325,-1.56043380e-01,-1,-0.7694380306557171
1.93071386e+03,2.24931082e+02,-3.31706845e-05,6.65109466,4.71895482,1.41031483,-1.84509896,1.26869478e+03,7.59250388,-1.53918011e-01,-1,-0.76508731978778
1.95974586e+03,2.24930135e+02,-3.30704086e-05,6.65084082,4.71938892,1.40931971,-1.84509898,1.26751870e+03,7.59317344,-1.51915688e-01,-1,-0.7606693425070081
1.98877785e+03,2.24929188e+02,-3.29701326e-05,6.65058699,4.71982303,1.40832460,-1.84509900,1.26634262e+03,7.59384300,-1.49913365e-01,-1,-0.7562513667479975
2.01780985e+03,2.24928240e+02,-3.28698567e-05,6.65033316,4.72025713,1.40732948,-1.84509902,1.26516654e+03,7.59451257,-1.47911042e-01,-1,-0.7518333894672256
2.04684185e+03,2.24927293e+02,-3.27695808e-05,6.65007932,4.72069123,1.40633436,-1.84509903,1.26399046e+03,7.59518213,-1.45908719e-01,-1,-0.7474154121864538
2.07587385e+03,2.24926346e+02,-3.26693049e-05,6.64982549,4.72112533,1.40533924,-1.84509905,1.26281438e+03,7.59585170,-1.43906397e-01,-1,-0.7429974349056818
2.10668891e+03,2.24925352e+02,-3.25773241e-05,6.64959662,4.72150828,1.40445890,-1.84509907,1.26161807e+03,7.59644598,-1.42128540e-01,-1,-0.7383081184622531
2.13866309e+03,2.24924327e+02,-3.24907358e-05,6.64938398,4.72185798,1.40365317,-1.84509909,1.26040862e+03,7.59699133,-1.40496603e-01,-1,-0.7334424116280249
2.17063727e+03,2.24923302e+02,-3.24041475e-05,6.64917134,4.72220769,1.40284744,-1.84509911,1.25919916e+03,7.59753669,-1.38864665e-01,-1,-0.7285767047937969
2.20261146e+03,2.24922278e+02,-3.23175591e-05,6.64895870,4.72255739,1.40204172,-1.84509914,1.25798970e+03,7.59808204,-1.37232728e-01,-1,-0.7237109964378075
2.23458564e+03,2.24921253e+02,-3.22309708e-05,6.64874606,4.72290710,1.40123599,-1.84509916,1.25678024e+03,7.59862739,-1.35600791e-01,-1,-0.7188452896035795
2.26655982e+03,2.24920229e+02,-3.21443824e-05,6.64853342,4.72325680,1.40043026,-1.84509918,1.25557079e+03,7.59917274,-1.33968853e-01,-1,-0.7139795827693514
2.29853401e+03,2.24919204e+02,-3.20577941e-05,6.64832078,4.72360650,1.39962453,-1.84509920,1.25436133e+03,7.59971809,-1.32336916e-01,-1,-0.7091138744133619
2.33339491e+03,2.24918103e+02,-3.19837661e-05,6.64816910,4.72394787,1.39886596,-1.84509922,1.25342016e+03,7.60027475,-1.30681934e-01,-1,-0.7038088777136078
2.36884113e+03,2.24916985e+02,-3.19122849e-05,6.64802979,4.72428755,1.39811695,-1.84509925,1.25253338e+03,7.60083371,-1.29022279e-01,-1,-0.6984148092839702
