star_age,star_mass,star_mdot,log_Teff,log_R,log_surf_z,surface_h1,surface_he3,log_center_T,log_center_Rho,phase,x
3.87024407e+02,2.74998813e+02,-3.09157304e-06,4.65551021,1.58918815,-3.84509851,7.50629157e-01,4.13682054e-05,7.44023599,-6.63588701e-01,-1,-1.0
3.92980666e+02,2.74998795e+02,-3.09249448e-06,4.65596995,1.58829454,-3.84509851,7.50629157e-01,4.13688273e-05,7.44114195,-6.60867762e-01,-1,-0.9989498287836318
3.98936924e+02,2.74998776e+02,-3.09341592e-06,4.65642969,1.58740093,-3.84509851,7.50629157e-01,4.13694493e-05,7.44204791,-6.58146823e-01,-1,-0.9978996577435776
4.04893182e+02,2.74998758e+02,-3.09433735e-06,4.65688943,1.58650732,-3.84509851,7.50629157e-01,4.13700712e-05,7.44295387,-6.55425883e-01,-1,-0.9968494867035234
4.10849440e+02,2.74998739e+02,-3.09525879e-06,4.65734917,1.58561371,-3.84509851,7.50629157e-01,4.13706932e-05,7.44385984,-6.52704944e-01,-1,-0.9957993156634691
4.16805698e+02,2.74998721e+02,-3.09618022e-06,4.65780891,1.58472010,-3.84509851,7.50629157e-01,4.13713151e-05,7.44476580,-6.49984005e-01,-1,-0.9947491446234148
4.22761956e+02,2.74998702e+02,-3.09710166e-06,4.65826865,1.58382649,-3.84509851,7.50629157e-01,4.13719370e-05,7.44567176,-6.47263066e-01,-1,-0.9936989735833606
4.28718214e+02,2.74998684e+02,-3.09802309e-06,4.65872839,1.58293288,-3.84509851,7.50629157e-01,4.13725590e-05,7.44657773,-6.44542126e-01,-1,-0.9926488025433063
4.34674472e+02,2.74998665e+02,-3.09894453e-06,4.65918813,1.58203927,-3.84509851,7.50629157e-01,4.13731809e-05,7.44748369,-6.41821187e-01,-1,-0.9915986315032521
4.40630731e+02,2.74998647e+02,-3.09986596e-06,4.65964787,1.58114566,-3.84509851,7.50629157e-01,4.13738028e-05,7.44838965,-6.39100248e-01,-1,-0.9905484602868839
4.46586989e+02,2.74998628e+02,-3.10078740e-06,4.66010761,1.58025205,-3.84509851,7.50629157e-01,4.13744248e-05,7.44929562,-6.36379308e-01,-1,-0.9894982892468297
4.52543247e+02,2.74998610e+02,-3.10170884e-06,4.66056735,1.57935844,-3.84509851,7.50629157e-01,4.13750467e-05,7.45020158,-6.33658369e-01,-1,-0.9884481182067755
4.58499505e+02,2.74998591e+02,-3.10263027e-06,4.66102709,1.57846483,-3.84509851,7.50629157e-01,4.13756687e-05,7.45110754,-6.30937430e-01,-1,-0.9873979471667211
4.64460329e+02,2.74998573e+02,-3.10355027e-06,4.66148712,1.57757064,-3.84509851,7.50629157e-01,4.13762933e-05,7.45201407,-6.28214791e-01,-1,-0.9863469710774282
4.71444293e+02,2.74998551e+02,-3.10414865e-06,4.66200986,1.57654660,-3.84509852,7.50629157e-01,4.13775239e-05,7.45304720,-6.25111395e-01,-1,-0.9851156011909018
4.78428256e+02,2.74998529e+02,-3.10474703e-06,4.66253261,1.57552256,-3.84509852,7.50629157e-01,4.13787545e-05,7.45408032,-6.22007998e-01,-1,-0.9838842314806894
4.85412220e+02,2.74998508e+02,-3.10534541e-06,4.66305535,1.57449852,-3.84509852,7.50629157e-01,4.13799851e-05,7.45511345,-6.18904602e-01,-1,-0.9826528615941631
4.92396184e+02,2.74998486e+02,-3.10594379e-06,4.66357810,1.57347448,-3.84509852,7.50629157e-01,4.13812157e-05,7.45614658,-6.15801206e-01,-1,-0.9814214917076368
4.99380147e+02,2.74998464e+02,-3.10654217e-06,4.66410084,1.57245044,-3.84509852,7.50629157e-01,4.13824463e-05,7.45717970,-6.12697809e-01,-1,-0.9801901219974244
5.06364111e+02,2.74998443e+02,-3.10714055e-06,4.66462359,1.57142640,-3.84509852,7.50629156e-01,4.13836770e-05,7.45821283,-6.09594413e-01,-1,-0.978958752110898
5.13348074e+02,2.74998421e+02,-3.10773893e-06,4.66514633,1.57040236,-3.84509852,7.50629156e-01,4.13849076e-05,7.45924595,-6.06491016e-01,-1,-0.9777273824006856
5.20332038e+02,2.74998399e+02,-3.10833731e-06,4.66566908,1.56937832,-3.84509852,7.50629156e-01,4.13861382e-05,7.46027908,-6.03387620e-01,-1,-0.9764960125141593
5.27316002e+02,2.74998377e+02,-3.10893569e-06,4.66619182,1.56835428,-3.84509852,7.50629156e-01,4.13873688e-05,7.46131221,-6.00284223e-01,-1,-0.975264642627633
5.34299965e+02,2.74998356e+02,-3.10953407e-06,4.66671457,1.56733024,-3.84509852,7.50629156e-01,4.13885994e-05,7.46234533,-5.97180827e-01,-1,-0.9740332729174206
5.42165751e+02,2.74998331e+02,-3.10938157e-06,4.66729232,1.56619461,-3.84509852,7.50629155e-01,4.13906792e-05,7.46348504,-5.93757472e-01,-1,-0.9726464255604954
5.50104205e+02,2.74998307e+02,-3.10916718e-06,4.66787461,1.56504978,-3.84509852,7.50629155e-01,4.13928290e-05,7.46463353,-5.90307749e-01,-1,-0.9712467658255406
5.58042658e+02,2.74998282e+02,-3.10895280e-06,4.66845690,1.56390494,-3.84509852,7.50629154e-01,4.13949788e-05,7.46578203,-5.86858027e-01,-1,-0.9698471062668996
5.65981112e+02,2.74998257e+02,-3.10873842e-06,4.66903918,1.56276011,-3.84509852,7.50629154e-01,4.13971286e-05,7.46693052,-5.83408305e-01,-1,-0.9684474465319447
5.73919565e+02,2.74998233e+02,-3.10852404e-06,4.66962147,1.56161528,-3.84509852,7.50629154e-01,4.13992784e-05,7.46807901,-5.79958583e-01,-1,-0.9670477869733037
5.81858019e+02,2.74998208e+02,-3.10830966e-06,4.67020375,1.56047045,-3.84509852,7.50629153e-01,4.14014282e-05,7.46922750,-5.76508861e-01,-1,-0.9656481272383488
5.89796472e+02,2.74998183e+02,-3.10809527e-06,4.67078604,1.55932562,-3.84509852,7.50629153e-01,4.14035780e-05,7.47037599,-5.73059139e-01,-1,-0.9642484676797078
5.97734926e+02,2.74998158e+02,-3.10788089e-06,4.67136833,1.55818079,-3.84509852,7.50629152e-01,4.14057278e-05,7.47152448,-5.69609417e-01,-1,-0.962848807944753
6.06032181e+02,2.74998133e+02,-3.10748089e-06,4.67197224,1.55699250,-3.84509852,7.50629152e-01,4.14084717e-05,7.47271372,-5.66037488e-01,-1,-0.9613858866084131
6.14992096e+02,2.74998105e+02,-3.10673807e-06,4.67261608,1.55572396,-3.84509852,7.50629151e-01,4.14123128e-05,7.47397821,-5.62239858e-01,-1,-0.9598061291072525
6.23952011e+02,2.74998077e+02,-3.10599525e-06,4.67325993,1.55445541,-3.84509852,7.50629150e-01,4.14161539e-05,7.47524270,-5.58442228e-01,-1,-0.9582263716060919
6.32911926e+02,2.74998049e+02,-3.10525243e-06,4.67390378,1.55318686,-3.84509852,7.50629149e-01,4.14199950e-05,7.47650719,-5.54644599e-01,-1,-0.9566466141049313
6.41871841e+02,2.74998022e+02,-3.10450961e-06,4.67454762,1.55191832,-3.84509852,7.50629148e-01,4.14238361e-05,7.47777168,-5.50846969e-01,-1,-0.9550668566037708
6.50831756e+02,2.74997994e+02,-3.10376679e-06,4.67519147,1.55064977,-3.84509852,7.50629147e-01,4.14276772e-05,7.47903617,-5.47049339e-01,-1,-0.9534870991026102
6.59791672e+02,2.74997966e+02,-3.10302397e-06,4.67583532,1.54938123,-3.84509852,7.50629146e-01,4.14315183e-05,7.48030066,-5.43251710e-01,-1,-0.9519073414251358
6.68751587e+02,2.74997938e+02,-3.10228115e-06,4.67647917,1.54811268,-3.84509852,7.50629145e-01,4.14353594e-05,7.48156515,-5.39454080e-01,-1,-0.9503275839239751
6.77711502e+02,2.74997910e+02,-3.10153832e-06,4.67712301,1.54684414,-3.84509852,7.50629144e-01,4.14392006e-05,7.48282964,-5.35656450e-01,-1,-0.9487478264228145
6.86960492e+02,2.74997882e+02,-3.10064577e-06,4.67778195,1.54554483,-3.84509852,7.50629142e-01,4.14438306e-05,7.48412372,-5.31769915e-01,-1,-0.9471171009828233
6.97140621e+02,2.74997850e+02,-3.09927091e-06,4.67848947,1.54414645,-3.84509852,7.50629140e-01,4.14510021e-05,7.48551309,-5.27597004e-01,-1,-0.945322202800136
7.07320749e+02,2.74997819e+02,-3.09789605e-06,4.67919700,1.54274808,-3.84509852,7.50629138e-01,4.14581735e-05,7.48690246,-5.23424093e-01,-1,-0.9435273047937627
7.17500878e+02,2.74997788e+02,-3.09652119e-06,4.67990453,1.54134970,-3.84509852,7.50629136e-01,4.14653450e-05,7.48829182,-5.19251182e-01,-1,-0.9417324066110754
7.27681007e+02,2.74997756e+02,-3.09514633e-06,4.68061205,1.53995132,-3.84509853,7.50629134e-01,4.14725164e-05,7.48968119,-5.15078271e-01,-1,-0.9399375084283882
7.37861135e+02,2.74997725e+02,-3.09377148e-06,4.68131958,1.53855294,-3.84509853,7.50629132e-01,4.14796878e-05,7.49107056,-5.10905360e-01,-1,-0.9381426104220147
7.48041264e+02,2.74997693e+02,-3.09239662e-06,4.68202711,1.53715456,-3.84509853,7.50629130e-01,4.14868593e-05,7.49245993,-5.06732450e-01,-1,-0.9363477122393276
7.58221393e+02,2.74997662e+02,-3.09102176e-06,4.68273463,1.53575619,-3.84509853,7.50629128e-01,4.14940307e-05,7.49384930,-5.02559539e-01,-1,-0.9345528140566403
7.68401521e+02,2.74997630e+02,-3.08964690e-06,4.68344216,1.53435781,-3.84509853,7.50629126e-01,4.15012022e-05,7.49523866,-4.98386628e-01,-1,-0.9327579160502669
7.78581650e+02,2.74997599e+02,-3.08827204e-06,4.68414969,1.53295943,-3.84509853,7.50629124e-01,4.15083736e-05,7.49662803,-4.94213717e-01,-1,-0.9309630178675796
7.89516056e+02,2.74997565e+02,-3.08582761e-06,4.68488974,1.53149239,-3.84509853,7.50629121e-01,4.15182431e-05,7.49808810,-4.89827828e-01,-1,-0.9290351301700697
8.00931414e+02,2.74997530e+02,-3.08270118e-06,4.68565053,1.52998158,-3.84509853,7.50629117e-01,4.15298329e-05,7.49959326,-4.85306138e-01,-1,-0.9270224439527414
8.12346771e+02,2.74997495e+02,-3.07957476e-06,4.68641132,1.52847076,-3.84509853,7.50629114e-01,4.15414228e-05,7.50109841,-4.80784448e-01,-1,-0.9250097579117269
8.23762129e+02,2.74997460e+02,-3.07644833e-06,4.68717211,1.52695995,-3.84509853,7.50629110e-01,4.15530126e-05,7.50260356,-4.76262758e-01,-1,-0.9229970716943985
8.35177486e+02,2.74997425e+02,-3.07332191e-06,4.68793290,1.52544913,-3.84509853,7.50629107e-01,4.15646025e-05,7.50410872,-4.71741068e-01,-1,-0.9209843856533841
8.46592844e+02,2.74997390e+02,-3.07019548e-06,4.68869369,1.52393831,-3.84509853,7.50629103e-01,4.15761923e-05,7.50561387,-4.67219378e-01,-1,-0.9189716994360557
8.58008202e+02,2.74997355e+02,-3.06706906e-06,4.68945448,1.52242750,-3.84509853,7.50629100e-01,4.15877822e-05,7.50711903,-4.62697688e-01,-1,-0.9169590132187274
8.69767188e+02,2.74997319e+02,-3.06364749e-06,4.69023181,1.52088374,-3.84509853,7.50629096e-01,4.16010873e-05,7.50865604,-4.58080381e-01,-1,-0.9148857406107236
8.82269789e+02,2.74997281e+02,-3.05958724e-06,4.69104492,1.51926868,-3.84509853,7.50629090e-01,4.16181042e-05,7.51026200,-4.53256159e-01,-1,-0.9126813583466321
8.94772390e+02,2.74997243e+02,-3.05552699e-06,4.69185803,1.51765363,-3.84509853,7.50629085e-01,4.16351211e-05,7.51186797,-4.48431937e-01,-1,-0.9104769760825405
9.07274991e+02,2.74997205e+02,-3.05146673e-06,4.69267114,1.51603858,-3.84509853,7.50629080e-01,4.16521381e-05,7.51347393,-4.43607715e-01,-1,-0.908272593818449
9.19777592e+02,2.74997167e+02,-3.04740648e-06,4.69348425,1.51442352,-3.84509853,7.50629075e-01,4.16691550e-05,7.51507989,-4.38783493e-01,-1,-0.9060682115543575
9.32280193e+02,2.74997129e+02,-3.04334623e-06,4.69429737,1.51280847,-3.84509853,7.50629069e-01,4.16861719e-05,7.51668585,-4.33959272e-01,-1,-0.903863829290266
9.44845299e+02,2.74997091e+02,-3.03924368e-06,4.69511312,1.51118809,-3.84509853,7.50629064e-01,4.17036043e-05,7.51829700,-4.29119492e-01,-1,-0.9016484265262467
9.58389088e+02,2.74997050e+02,-3.03447887e-06,4.69597019,1.50948438,-3.84509853,7.50629057e-01,4.17275412e-05,7.51998927,-4.24036111e-01,-1,-0.8992604683517678
9.71932877e+02,2.74997010e+02,-3.02971406e-06,4.69682726,1.50778066,-3.84509853,7.50629049e-01,4.17514780e-05,7.52168155,-4.18952731e-01,-1,-0.8968725101772889
9.85476666e+02,2.74996969e+02,-3.02494926e-06,4.69768433,1.50607695,-3.84509853,7.50629042e-01,4.17754149e-05,7.52337382,-4.13869350e-01,-1,-0.89448455200281
9.99020454e+02,2.74996928e+02,-3.02018445e-06,4.69854140,1.50437323,-3.84509854,7.50629034e-01,4.17993518e-05,7.52506610,-4.08785970e-01,-1,-0.892096594004645
1.01256424e+03,2.74996887e+02,-3.01541964e-06,4.69939847,1.50266951,-3.84509854,7.50629026e-01,4.18232887e-05,7.52675837,-4.03702590e-01,-1,-0.8897086363591077
1.02652487e+03,2.74996845e+02,-3.01069364e-06,4.70027216,1.50093295,-3.84509854,7.50629018e-01,4.18511723e-05,7.52848134,-3.98527335e-01,-1,-0.8872471833248515
1.04119719e+03,2.74996802e+02,-3.00603388e-06,4.70117425,1.49914031,-3.84509854,7.50629007e-01,4.18857941e-05,7.53025670,-3.93195219e-01,-1,-0.884660249455565
1.05586951e+03,2.74996758e+02,-3.00137412e-06,4.70207633,1.49734767,-3.84509854,7.50628996e-01,4.19204159e-05,7.53203206,-3.87863103e-01,-1,-0.8820733155862786
1.07054182e+03,2.74996714e+02,-2.99671436e-06,4.70297841,1.49555503,-3.84509854,7.50628984e-01,4.19550378e-05,7.53380742,-3.82530987e-01,-1,-0.879486383480131
1.08521414e+03,2.74996670e+02,-2.99205461e-06,4.70388049,1.49376239,-3.84509854,7.50628973e-01,4.19896596e-05,7.53558278,-3.77198871e-01,-1,-0.8768994496108444
1.09988646e+03,2.74996627e+02,-2.98739485e-06,4.70478258,1.49196976,-3.84509854,7.50628962e-01,4.20242814e-05,7.53735814,-3.71866755e-01,-1,-0.8743125157415579
1.11464802e+03,2.74996583e+02,-2.98268480e-06,4.70568732,1.49017164,-3.84509854,7.50628951e-01,4.20600215e-05,7.53913884,-3.66518619e-01,-1,-0.8717098476203946
1.13067655e+03,2.74996535e+02,-2.97726077e-06,4.70662987,1.48829573,-3.84509854,7.50628934e-01,4.21116364e-05,7.54099538,-3.60943063e-01,-1,-0.8688837950852895
1.14670508e+03,2.74996488e+02,-2.97183674e-06,4.70757241,1.48641983,-3.84509854,7.50628918e-01,4.21632514e-05,7.54285192,-3.55367506e-01,-1,-0.8660577425501843
1.16273361e+03,2.74996441e+02,-2.96641271e-06,4.70851495,1.48454393,-3.84509854,7.50628901e-01,4.22148664e-05,7.54470846,-3.49791950e-01,-1,-0.8632316900150789
1.17876214e+03,2.74996394e+02,-2.96098867e-06,4.70945749,1.48266803,-3.84509854,7.50628884e-01,4.22664814e-05,7.54656500,-3.44216393e-01,-1,-0.8604056374799738
1.19479066e+03,2.74996346e+02,-2.95556464e-06,4.71040004,1.48079212,-3.84509854,7.50628868e-01,4.23180964e-05,7.54842154,-3.38640837e-01,-1,-0.8575795867080075
1.21081919e+03,2.74996299e+02,-2.95014061e-06,4.71134258,1.47891622,-3.84509854,7.50628851e-01,4.23697113e-05,7.55027808,-3.33065280e-01,-1,-0.8547535341729022
1.22704454e+03,2.74996252e+02,-2.94424812e-06,4.71228918,1.47703111,-3.84509854,7.50628833e-01,4.24240256e-05,7.55214499,-3.27458195e-01,-1,-0.8518927795372326
1.24446342e+03,2.74996201e+02,-2.93551491e-06,4.71326037,1.47509013,-3.84509854,7.50628810e-01,4.24947087e-05,7.55407478,-3.21659923e-01,-1,-0.8488215889799766
1.26188229e+03,2.74996151e+02,-2.92678169e-06,4.71423157,1.47314915,-3.84509855,7.50628787e-01,4.25653918e-05,7.55600457,-3.15861651e-01,-1,-0.8457504001858597
1.27930116e+03,2.74996100e+02,-2.91804847e-06,4.71520276,1.47120818,-3.84509855,7.50628764e-01,4.26360749e-05,7.55793437,-3.10063380e-01,-1,-0.8426792113917426
1.29672004e+03,2.74996050e+02,-2.90931525e-06,4.71617396,1.46926720,-3.84509855,7.50628741e-01,4.27067580e-05,7.55986416,-3.04265108e-01,-1,-0.8396080208344867
1.31413891e+03,2.74995999e+02,-2.90058204e-06,4.71714515,1.46732622,-3.84509855,7.50628719e-01,4.27774411e-05,7.56179395,-2.98466836e-01,-1,-0.8365368320403697
1.33233537e+03,2.74995947e+02,-2.89162257e-06,4.71813876,1.46534120,-3.84509855,7.50628691e-01,4.28607310e-05,7.56376623,-2.92541070e-01,-1,-0.8333285433256253
1.35099590e+03,2.74995894e+02,-2.88252808e-06,4.71914574,1.46332988,-3.84509855,7.50628662e-01,4.29515446e-05,7.56576387,-2.86539218e-01,-1,-0.8300384326222167
1.36965643e+03,2.74995841e+02,-2.87343358e-06,4.72015272,1.46131856,-3.84509855,7.50628632e-01,4.30423582e-05,7.56776150,-2.80537365e-01,-1,-0.826748321918808
1.38831696e+03,2.74995787e+02,-2.86433909e-06,4.72115970,1.45930725,-3.84509855,7.50628603e-01,4.31331718e-05,7.56975913,-2.74535512e-01,-1,-0.8234582112153993
1.40697749e+03,2.74995734e+02,-2.85524460e-06,4.72216668,1.45729593,-3.84509855,7.50628573e-01,4.32239854e-05,7.57175677,-2.68533659e-01,-1,-0.8201681005119906
1.42658818e+03,2.74995679e+02,-2.84697938e-06,4.72320008,1.45523396,-3.84509855,7.50628537e-01,4.33342382e-05,7.57380066,-2.62394054e-01,-1,-0.8167104633993133
1.44657231e+03,2.74995623e+02,-2.83904009e-06,4.72424386,1.45315209,-3.84509855,7.50628498e-01,4.34521309e-05,7.57586274,-2.56200310e-01,-1,-0.8131869836261605
1.46655644e+03,2.74995567e+02,-2.83110080e-06,4.72528765,1.45107022,-3.84509855,7.50628460e-01,4.35700237e-05,7.57792481,-2.50006565e-01,-1,-0.8096635038530078
1.48654057e+03,2.74995510e+02,-2.82316151e-06,4.72633144,1.44898834,-3.84509855,7.50628421e-01,4.36879165e-05,7.57998688,-2.43812821e-01,-1,-0.806140024079855
1.50652470e+03,2.74995454e+02,-2.81522222e-06,4.72737522,1.44690647,-3.84509856,7.50628383e-01,4.38058092e-05,7.58204896,-2.37619076e-01,-1,-0.8026165443067022
1.52685542e+03,2.74995397e+02,-2.80713133e-06,4.72842643,1.44480952,-3.84509856,7.50628342e-01,4.39316437e-05,7.58412650,-2.31378847e-01,-1,-0.7990319559011207
1.54843007e+03,2.74995338e+02,-2.79849633e-06,4.72950429,1.44265849,-3.84509856,7.50628291e-01,4.40859813e-05,7.58625953,-2.24971784e-01,-1,-0.7952280453537088
1.57000472e+03,2.74995278e+02,-2.78986133e-06,4.73058215,1.44050747,-3.84509856,7.50628240e-01,4.42403188e-05,7.58839257,-2.18564721e-01,-1,-0.7914241348062969
1.59157937e+03,2.74995219e+02,-2.78122632e-06,4.73166001,1.43835644,-3.84509856,7.50628189e-01,4.43946563e-05,7.59052561,-2.12157658e-01,-1,-0.787620224258885
1.61315402e+03,2.74995160e+02,-2.77259132e-06,4.73273788,1.43620541,-3.84509856,7.50628139e-01,4.45489939e-05,7.59265864,-2.05750595e-01,-1,-0.7838163137114731
1.63472867e+03,2.74995100e+02,-2.76395632e-06,4.73381574,1.43405438,-3.84509856,7.50628088e-01,4.47033314e-05,7.59479168,-1.99343532e-01,-1,-0.7800124031640612
1.65647319e+03,2.74995040e+02,-2.75485715e-06,4.73489636,1.43189708,-3.84509856,7.50628036e-01,4.48612690e-05,7.59693252,-1.92917678e-01,-1,-0.7761785421755211
1.67967300e+03,2.74994978e+02,-2.74178150e-06,4.73600064,1.42968598,-3.84509856,7.50627974e-01,4.50500474e-05,7.59914025,-1.86330848e-01,-1,-0.7720880933405712
1.70287281e+03,2.74994915e+02,-2.72870585e-06,4.73710492,1.42747489,-3.84509856,7.50627912e-01,4.52388258e-05,7.60134798,-1.79744019e-01,-1,-0.7679976445056212
1.72607262e+03,2.74994853e+02,-2.71563020e-06,4.73820920,1.42526379,-3.84509856,7.50627850e-01,4.54276042e-05,7.60355570,-1.73157189e-01,-1,-0.7639071956706713
1.74927243e+03,2.74994790e+02,-2.70255456e-06,4.73931348,1.42305269,-3.84509857,7.50627788e-01,4.56163826e-05,7.60576343,-1.66570360e-01,-1,-0.7598167468357213
1.77276691e+03,2.74994727e+02,-2.68952229e-06,4.74042657,1.42082494,-3.84509857,7.50627724e-01,4.58113896e-05,7.60798703,-1.59940127e-01,-1,-0.7556743435857054
1.79739119e+03,2.74994663e+02,-2.67665636e-06,4.74157346,1.41853330,-3.84509857,7.50627652e-01,4.60302777e-05,7.61027147,-1.53143483e-01,-1,-0.7513327408985506
1.82201547e+03,2.74994598e+02,-2.66379043e-06,4.74272035,1.41624167,-3.84509857,7.50627580e-01,4.62491659e-05,7.61255590,-1.46346839e-01,-1,-0.7469911382113958
1.84663975e+03,2.74994533e+02,-2.65092450e-06,4.74386723,1.41395004,-3.84509857,7.50627508e-01,4.64680540e-05,7.61484034,-1.39550194e-01,-1,-0.7426495355242411
1.87126404e+03,2.74994468e+02,-2.63805856e-06,4.74501412,1.41165840,-3.84509857,7.50627436e-01,4.66869422e-05,7.61712478,-1.32753550e-01,-1,-0.7383079310739473
1.89701871e+03,2.74994401e+02,-2.62502300e-06,4.74619291,1.40930521,-3.84509857,7.50627356e-01,4.69297877e-05,7.61946981,-1.25774494e-01,-1,-0.7337670249244566
1.92301573e+03,2.74994334e+02,-2.61195108e-06,4.74737855,1.40693882,-3.84509857,7.50627275e-01,4.71777696e-05,7.62182782,-1.18756330e-01,-1,-0.7291833891028197
1.94901275e+03,2.74994267e+02,-2.59887915e-06,4.74856418,1.40457243,-3.84509858,7.50627193e-01,4.74257515e-05,7.62418584,-1.11738165e-01,-1,-0.7245997532811828
1.97500977e+03,2.74994200e+02,-2.58580722e-06,4.74974982,1.40220604,-3.84509858,7.50627111e-01,4.76737333e-05,7.62654386,-1.04720001e-01,-1,-0.7200161174595459
2.00204457e+03,2.74994131e+02,-2.57387955e-06,4.75097043,1.39977482,-3.84509858,7.50627022e-01,4.79439999e-05,7.62896264,-9.75188339e-02,-1,-0.7152495066052714
2.02951316e+03,2.74994062e+02,-2.56243017e-06,4.75220566,1.39731650,-3.84509858,7.50626930e-01,4.82235814e-05,7.63140681,-9.02411715e-02,-1,-0.7104064125470348
2.05698174e+03,2.74993992e+02,-2.55098079e-06,4.75344089,1.39485819,-3.84509858,7.50626838e-01,4.85031629e-05,7.63385099,-8.29635090e-02,-1,-0.7055633202519374
2.08445033e+03,2.74993923e+02,-2.53953142e-06,4.75467613,1.39239987,-3.84509858,7.50626746e-01,4.87827444e-05,7.63629517,-7.56858466e-02,-1,-0.7007202261937007
2.11196836e+03,2.74993853e+02,-2.52806225e-06,4.75591279,1.38993877,-3.84509858,7.50626654e-01,4.90632034e-05,7.63874221,-6.83994852e-02,-1,-0.6958684151765582
