star_age,star_mass,star_mdot,log_Teff,log_R,log_surf_z,surface_h1,surface_he3,log_center_T,log_center_Rho,phase,x
4.15662214e+03,3.99999973e-01,-5.60782280e-12,3.60137304,7.93628254e-01,-2.34509847,7.39732019e-01,4.24450738e-05,5.72055715,-1.74932518,-1,-1.0
4.38678076e+03,3.99999971e-01,-5.51684147e-12,3.60146623,7.91145262e-01,-2.34509847,7.39732019e-01,4.24450741e-05,5.72286459,-1.74244124,-1,-0.9999985990535722
4.62953192e+03,3.99999970e-01,-5.42420801e-12,3.60155344,7.88569530e-01,-2.34509847,7.39732019e-01,4.24450743e-05,5.72525890,-1.73529569,-1,-0.9999971214579453
4.88595662e+03,3.99999969e-01,-5.32933957e-12,3.60164412,7.85896803e-01,-2.34509847,7.39732019e-01,4.24450746e-05,5.72774415,-1.72787867,-1,-0.9999955606332087
5.15652196e+03,3.99999967e-01,-5.23289668e-12,3.60173531,7.83127320e-01,-2.34509847,7.39732019e-01,4.24450749e-05,5.73032010,-1.72019069,-1,-0.9999939137361837
5.44184618e+03,3.99999966e-01,-5.13470884e-12,3.60182777,7.80260443e-01,-2.34509847,7.39732019e-01,4.24450753e-05,5.73298742,-1.71222885,-1,-0.9999921770037218
5.74253820e+03,3.99999964e-01,-5.03494143e-12,3.60192187,7.77296109e-01,-2.34509847,7.39732019e-01,4.24450758e-05,5.73574603,-1.70399337,-1,-0.9999903467294038
6.05928724e+03,3.99999963e-01,-4.93365585e-12,3.60203308,7.74233209e-01,-2.34509847,7.39732019e-01,4.24450763e-05,5.73859737,-1.69548119,-1,-0.9999884187180347
6.39374179e+03,3.99999961e-01,-4.83189855e-12,3.60213384,7.71065999e-01,-2.34509847,7.39732019e-01,4.24450770e-05,5.74154654,-1.68667553,-1,-0.999986382935464
6.74713992e+03,3.99999959e-01,-4.72829177e-12,3.60223226,7.67792822e-01,-2.34509847,7.39732019e-01,4.24450778e-05,5.74459540,-1.67757139,-1,-0.9999842318457166
7.11941227e+03,3.99999958e-01,-4.62357900e-12,3.60233272,7.64418489e-01,-2.34509847,7.39732019e-01,4.24450787e-05,5.74773933,-1.66818057,-1,-0.9999819658709777
7.51176448e+03,3.99999956e-01,-4.51819555e-12,3.60244598,7.60940033e-01,-2.34509847,7.39732019e-01,4.24450798e-05,5.75098162,-1.65849647,-1,-0.999979577672669
7.92628965e+03,3.99999954e-01,-4.41186861e-12,3.60254606,7.57353822e-01,-2.34509847,7.39732019e-01,4.24450812e-05,5.75432564,-1.64850671,-1,-0.9999770545103556
8.36318178e+03,3.99999952e-01,-4.30479734e-12,3.60264306,7.53663215e-01,-2.34509847,7.39732019e-01,4.24450828e-05,5.75776856,-1.63822100,-1,-0.9999743952031837
8.82415410e+03,3.99999950e-01,-4.19715241e-12,3.60274231,7.49866431e-01,-2.34509847,7.39732019e-01,4.24450848e-05,5.76131227,-1.62763297,-1,-0.9999715893229392
9.30963725e+03,3.99999948e-01,-4.08914239e-12,3.60284051,7.45966310e-01,-2.34509847,7.39732019e-01,4.24450873e-05,5.76495420,-1.61675285,-1,-0.9999686342483706
9.82293024e+03,3.99999946e-01,-3.98096221e-12,3.60294240,7.41955557e-01,-2.34509847,7.39732019e-01,4.24450903e-05,5.76870131,-1.60555623,-1,-0.999965509898821
1.03629235e+04,3.99999944e-01,-3.87317140e-12,3.60304269,7.37844170e-01,-2.34509847,7.39732019e-01,4.24450939e-05,5.77254408,-1.59407318,-1,-0.999962223028103
1.09325941e+04,3.99999942e-01,-3.76523907e-12,3.60313748,7.33627157e-01,-2.34509847,7.39732019e-01,4.24450985e-05,5.77648725,-1.58229008,-1,-0.9999587555151676
1.15342943e+04,3.99999940e-01,-3.65766514e-12,3.60323099,7.29303202e-01,-2.34509847,7.39732019e-01,4.24451041e-05,5.78053205,-1.57020097,-1,-0.9999550930421055
1.21681508e+04,3.99999938e-01,-3.55049765e-12,3.60332301,7.24873462e-01,-2.34509847,7.39732019e-01,4.24451111e-05,5.78460797,-1.55792964,-1,-0.99995123483771
1.28361731e+04,3.99999935e-01,-3.44364963e-12,3.60341863,7.20338507e-01,-2.34509847,7.39732019e-01,4.24451198e-05,5.78882161,-1.54529760,-1,-0.9999471686704084
1.35405388e+04,3.99999933e-01,-3.33824459e-12,3.60352409,7.15707624e-01,-2.34509847,7.39732019e-01,4.24451307e-05,5.79312576,-1.53238848,-1,-0.9999428812854249
1.42831180e+04,3.99999930e-01,-3.23356482e-12,3.60360963,7.10973883e-01,-2.34509847,7.39732019e-01,4.24451443e-05,5.79755368,-1.51913719,-1,-0.999938361299697
1.50663100e+04,3.99999928e-01,-3.12988946e-12,3.60369694,7.06146998e-01,-2.34509847,7.39732019e-01,4.24451615e-05,5.80207729,-1.50560703,-1,-0.9999335941089892
1.58920207e+04,3.99999925e-01,-3.02757318e-12,3.60377760,7.01219583e-01,-2.34509847,7.39732019e-01,4.24451833e-05,5.80669348,-1.49179269,-1,-0.9999285681123287
1.67624730e+04,3.99999923e-01,-2.92644461e-12,3.60385274,6.96200616e-01,-2.34509847,7.39732019e-01,4.24452109e-05,5.81140306,-1.47770167,-1,-0.9999232697792044
1.76802435e+04,3.99999920e-01,-2.82651497e-12,3.60392385,6.91085258e-01,-2.34509847,7.39732019e-01,4.24452460e-05,5.81620521,-1.46333297,-1,-0.9999176834261778
1.86476184e+04,3.99999918e-01,-2.72842732e-12,3.60398942,6.85880791e-01,-2.34509847,7.39732019e-01,4.24452907e-05,5.82109458,-1.44870209,-1,-0.9999117951374384
1.96673977e+04,3.99999915e-01,-2.63197590e-12,3.60405120,6.80587402e-01,-2.34509847,7.39732019e-01,4.24453479e-05,5.82607014,-1.43381346,-1,-0.9999055878697403
2.07425332e+04,3.99999912e-01,-2.53712309e-12,3.60410486,6.75206133e-01,-2.34509847,7.39732019e-01,4.24454213e-05,5.83113127,-1.41866853,-1,-0.9998990436558497
2.18752364e+04,3.99999909e-01,-2.44447415e-12,3.60416515,6.69739673e-01,-2.34509847,7.39732019e-01,4.24455154e-05,5.83627471,-1.40327709,-1,-0.9998921490346458
2.30684806e+04,3.99999907e-01,-2.35343598e-12,3.60420872,6.64192815e-01,-2.34509847,7.39732019e-01,4.24456363e-05,5.84149651,-1.38764715,-1,-0.9998848859080275
2.43282039e+04,3.99999904e-01,-2.26464907e-12,3.60425646,6.58562584e-01,-2.34509847,7.39732019e-01,4.24457936e-05,5.84679916,-1.37177405,-1,-0.9998772181315304
2.56544717e+04,3.99999901e-01,-2.17778373e-12,3.60428334,6.52857804e-01,-2.34509847,7.39732019e-01,4.24459962e-05,5.85217518,-1.35567935,-1,-0.999869145307073
2.70516924e+04,3.99999898e-01,-2.09288659e-12,3.60430140,6.47081677e-01,-2.34509847,7.39732019e-01,4.24462584e-05,5.85762153,-1.33937301,-1,-0.999860640601282
2.85260258e+04,3.99999895e-01,-2.01016568e-12,3.60431774,6.41229172e-01,-2.34509847,7.39732018e-01,4.24466011e-05,5.86314350,-1.32284092,-1,-0.999851666520233
3.00775526e+04,3.99999892e-01,-1.92972869e-12,3.60432154,6.35311486e-01,-2.34509847,7.39732018e-01,4.24470441e-05,5.86872971,-1.30611446,-1,-0.9998422225727156
3.17149662e+04,3.99999889e-01,-1.85153236e-12,3.60432108,6.29321363e-01,-2.34509847,7.39732018e-01,4.24476259e-05,5.87438718,-1.28916829,-1,-0.9998322558431028
3.34384812e+04,3.99999886e-01,-1.77553477e-12,3.60430939,6.23274140e-01,-2.34509847,7.39732018e-01,4.24483816e-05,5.88010164,-1.27204861,-1,-0.9998217650251514
3.52565892e+04,3.99999882e-01,-1.70198005e-12,3.60429815,6.17161269e-01,-2.34509847,7.39732018e-01,4.24493748e-05,5.88588168,-1.25472968,-1,-0.9998106984315657
3.71706845e+04,3.99999879e-01,-1.63057174e-12,3.60427286,6.10993858e-01,-2.34509847,7.39732017e-01,4.24506702e-05,5.89171697,-1.23724416,-1,-0.9997990475754176
3.91892245e+04,3.99999876e-01,-1.56147069e-12,3.60423695,6.04773470e-01,-2.34509847,7.39732017e-01,4.24523751e-05,5.89760626,-1.21959639,-1,-0.9997867609775827
4.13157127e+04,3.99999873e-01,-1.49453537e-12,3.60418167,5.98501834e-01,-2.34509847,7.39732016e-01,4.24546132e-05,5.90354715,-1.20179531,-1,-0.999773817312699
4.35561734e+04,3.99999870e-01,-1.42976987e-12,3.60411610,5.92186357e-01,-2.34509847,7.39732015e-01,4.24575517e-05,5.90953252,-1.18385811,-1,-0.999760179911614
4.59174721e+04,3.99999866e-01,-1.36743551e-12,3.60404376,5.85826815e-01,-2.34509847,7.39732013e-01,4.24614194e-05,5.91556262,-1.16578496,-1,-0.9997458069848971
4.84050090e+04,3.99999863e-01,-1.30725816e-12,3.60395231,5.79429010e-01,-2.34509847,7.39732012e-01,4.24665062e-05,5.92163188,-1.14759028,-1,-0.9997306656622135
5.10266483e+04,3.99999860e-01,-1.24926503e-12,3.60385526,5.72996670e-01,-2.34509847,7.39732010e-01,4.24732073e-05,5.92773758,-1.12928368,-1,-0.9997147080751716
5.37899149e+04,3.99999856e-01,-1.19349206e-12,3.60374222,5.66539207e-01,-2.34509847,7.39732007e-01,4.24820457e-05,5.93387085,-1.11089402,-1,-0.9996978884206564
5.67003648e+04,3.99999853e-01,-1.13989029e-12,3.60361238,5.60061397e-01,-2.34509847,7.39732003e-01,4.24936585e-05,5.94002718,-1.09243493,-1,-0.9996801728799982
5.97672084e+04,3.99999850e-01,-1.08843204e-12,3.60346827,5.53571960e-01,-2.34509847,7.39731998e-01,4.25089392e-05,5.94619789,-1.07393285,-1,-0.9996615053906565
6.30010168e+04,3.99999846e-01,-1.03923771e-12,3.60331867,5.47076809e-01,-2.34509847,7.39731991e-01,4.25290932e-05,5.95237713,-1.05540626,-1,-0.9996418216076814
6.64094397e+04,3.99999843e-01,-9.92198344e-13,3.60315042,5.40589802e-01,-2.34509847,7.39731982e-01,4.25556070e-05,5.95855163,-1.03689035,-1,-0.9996210749683165
7.00008266e+04,3.99999839e-01,-9.47249498e-13,3.60296965,5.34121219e-01,-2.34509847,7.39731971e-01,4.25903488e-05,5.96471171,-1.01841245,-1,-0.9995992146502103
7.37858657e+04,3.99999836e-01,-9.04450332e-13,3.60278563,5.27688195e-01,-2.34509847,7.39731955e-01,4.26357582e-05,5.97084144,-1.00002215,-1,-0.9995761755956404
7.77782592e+04,3.99999832e-01,-8.63827805e-13,3.60258193,5.21311926e-01,-2.34509847,7.39731936e-01,4.26952093e-05,5.97692037,-9.81782856e-01,-1,-0.9995518744010475
8.19907023e+04,3.99999829e-01,-8.25351034e-13,3.60237583,5.15014685e-01,-2.34509847,7.39731910e-01,4.27727562e-05,5.98292684,-9.63762257e-01,-1,-0.999526233792354
8.64321830e+04,3.99999825e-01,-7.89215318e-13,3.60216174,5.08821049e-01,-2.34509847,7.39731876e-01,4.28730292e-05,5.98883673,-9.46031014e-01,-1,-0.9994991990607396
9.11149253e+04,3.99999822e-01,-7.55211280e-13,3.60193640,5.02761896e-01,-2.34509847,7.39731833e-01,4.30017040e-05,5.99462044,-9.28676810e-01,-1,-0.9994706958002617
9.60652297e+04,3.99999818e-01,-7.23545193e-13,3.60170453,4.96882037e-01,-2.34509847,7.39731778e-01,4.31674684e-05,6.00023516,-9.11825443e-01,-1,-0.9994405639231012
1.01286158e+05,3.99999815e-01,-6.94137613e-13,3.60146976,4.91214089e-01,-2.34509847,7.39731708e-01,4.33765863e-05,6.00565011,-8.95571282e-01,-1,-0.9994087847924685
1.06804438e+05,3.99999811e-01,-6.67148955e-13,3.60123601,4.85805207e-01,-2.34509847,7.39731621e-01,4.36395911e-05,6.01081996,-8.80052964e-01,-1,-0.9993751957196234
1.12626632e+05,3.99999807e-01,-6.42402002e-13,3.60100730,4.80685415e-01,-2.34509847,7.39731513e-01,4.39635263e-05,6.01571577,-8.65356065e-01,-1,-0.9993397567606752
1.18792264e+05,3.99999803e-01,-6.20206951e-13,3.60079449,4.75905629e-01,-2.34509847,7.39731380e-01,4.43619348e-05,6.02028832,-8.51630255e-01,-1,-0.9993022273380319
1.25304564e+05,3.99999799e-01,-6.00222163e-13,3.60058737,4.71477738e-01,-2.34509847,7.39731221e-01,4.48395235e-05,6.02452567,-8.38910438e-01,-1,-0.9992625877910916
1.32186971e+05,3.99999795e-01,-5.82421340e-13,3.60040456,4.67412064e-01,-2.34509847,7.39731033e-01,4.54030662e-05,6.02841771,-8.27225855e-01,-1,-0.9992206954496241
1.39456799e+05,3.99999791e-01,-5.66587518e-13,3.60022542,4.63699782e-01,-2.34509847,7.39730815e-01,4.60557206e-05,6.03197242,-8.16555063e-01,-1,-0.9991764449255
1.47130786e+05,3.99999787e-01,-5.52492650e-13,3.60007324,4.60312775e-01,-2.34509847,7.39730568e-01,4.67974442e-05,6.03521656,-8.06814910e-01,-1,-0.9991297343366289
1.55267101e+05,3.99999782e-01,-5.40095659e-13,3.59991820,4.57230544e-01,-2.34509847,7.39730289e-01,4.76335389e-05,6.03816929,-7.97950094e-01,-1,-0.9990802096156604
1.63819022e+05,3.99999778e-01,-5.28775063e-13,3.59977315,4.54357782e-01,-2.34509847,7.39729985e-01,4.85462353e-05,6.04092203,-7.89685739e-01,-1,-0.9990281551535029
1.72897212e+05,3.99999773e-01,-5.18458482e-13,3.59963349,4.51662296e-01,-2.34509847,7.39729653e-01,4.95439327e-05,6.04350545,-7.81928409e-01,-1,-0.9989728973584631
1.82447280e+05,3.99999768e-01,-5.08699997e-13,3.59949564,4.49050846e-01,-2.34509847,7.39729298e-01,5.06064371e-05,6.04600868,-7.74412581e-01,-1,-0.998914767301683
1.92500429e+05,3.99999763e-01,-4.99273229e-13,3.59935733,4.46460345e-01,-2.34509847,7.39728925e-01,5.17274153e-05,6.04849231,-7.66956798e-01,-1,-0.9988535750544458
2.03162780e+05,3.99999758e-01,-4.89925309e-13,3.59921494,4.43811091e-01,-2.34509847,7.39728532e-01,5.29048331e-05,6.05103268,-7.59328837e-01,-1,-0.9987886746716382
2.14397913e+05,3.99999753e-01,-4.80352733e-13,3.59906349,4.41034147e-01,-2.34509847,7.39728127e-01,5.41219701e-05,6.05369593,-7.51331494e-01,-1,-0.9987202878371967
2.26219705e+05,3.99999747e-01,-4.70284328e-13,3.59889948,4.38064707e-01,-2.34509847,7.39727712e-01,5.53673608e-05,6.05654421,-7.42777539e-01,-1,-0.9986483300835763
2.38645181e+05,3.99999741e-01,-4.59489853e-13,3.59871954,4.34837320e-01,-2.34509847,7.39727291e-01,5.66289229e-05,6.05964055,-7.33478979e-01,-1,-0.9985726977817541
2.51811036e+05,3.99999735e-01,-4.47596553e-13,3.59851123,4.31207507e-01,-2.34509847,7.39726871e-01,5.78902485e-05,6.06312382,-7.23017783e-01,-1,-0.9984925588865433
2.65601289e+05,3.99999729e-01,-4.34515622e-13,3.59827469,4.27162459e-01,-2.34509847,7.39726456e-01,5.91327361e-05,6.06700610,-7.11356797e-01,-1,-0.998408619359631
2.80143908e+05,3.99999723e-01,-4.19872297e-13,3.59800391,4.22513673e-01,-2.34509847,7.39726059e-01,6.03261787e-05,6.07146933,-6.97950245e-01,-1,-0.9983201002759762
2.95385536e+05,3.99999717e-01,-4.03559537e-13,3.59768845,4.17185455e-01,-2.34509847,7.39725687e-01,6.14423289e-05,6.07658624,-6.82578700e-01,-1,-0.9982273264128938
3.11337437e+05,3.99999711e-01,-3.85391031e-13,3.59731943,4.11033003e-01,-2.34509847,7.39725353e-01,6.24428620e-05,6.08249690,-6.64819412e-01,-1,-0.9981302292078393
3.28013545e+05,3.99999705e-01,-3.65240499e-13,3.59688043,4.03888455e-01,-2.34509847,7.39725075e-01,6.32773935e-05,6.08936358,-6.44184849e-01,-1,-0.9980287238463162
3.45359660e+05,3.99999699e-01,-3.43365475e-13,3.59636596,3.95704279e-01,-2.34509847,7.39724863e-01,6.39127634e-05,6.09723328,-6.20535902e-01,-1,-0.9979231402368737
3.63379984e+05,3.99999693e-01,-3.20277392e-13,3.59577759,3.86498175e-01,-2.34509847,7.39724725e-01,6.43256109e-05,6.10609029,-5.93919021e-01,-1,-0.9978134528024685
3.82112686e+05,3.99999687e-01,-2.96955917e-13,3.59513156,3.76504665e-01,-2.34509847,7.39724654e-01,6.45389137e-05,6.11570999,-5.65003989e-01,-1,-0.9976994292132225
4.01670765e+05,3.99999681e-01,-2.74473010e-13,3.59444617,3.66108870e-01,-2.34509847,7.39724628e-01,6.46172738e-05,6.12572435,-5.34899604e-01,-1,-0.9975803816585058
4.22227713e+05,3.99999676e-01,-2.53712022e-13,3.59375088,3.55690283e-01,-2.34509847,7.39724622e-01,6.46347207e-05,6.13576652,-5.04713974e-01,-1,-0.9974552541144439
4.43886055e+05,3.99999671e-01,-2.34844235e-13,3.59305951,3.45447960e-01,-2.34509847,7.39724622e-01,6.46369049e-05,6.14564501,-4.75008704e-01,-1,-0.997323422524321
4.66735549e+05,3.99999666e-01,-2.17744774e-13,3.59237841,3.35422552e-01,-2.34509847,7.39724622e-01,6.46370295e-05,6.15549727,-4.45595758e-01,-1,-0.9971843405425367
4.90849206e+05,3.99999661e-01,-2.02259641e-13,3.59171629,3.25619784e-01,-2.34509847,7.39724622e-01,6.46370328e-05,6.16496166,-4.17133297e-01,-1,-0.9970375637603626
5.16288029e+05,3.99999656e-01,-1.88137546e-13,3.59106947,3.16008974e-01,-2.34509847,7.39724622e-01,6.46370328e-05,6.17424511,-3.89211858e-01,-1,-0.9968827208602484
5.43120807e+05,3.99999651e-01,-1.75240595e-13,3.59044139,3.06572379e-01,-2.34509847,7.39724622e-01,6.46370328e-05,6.18336458,-3.61778058e-01,-1,-0.9967193931322463
5.71418197e+05,3.99999646e-01,-1.63436266e-13,3.58983244,2.97295236e-01,-2.34509847,7.39724622e-01,6.46370328e-05,6.19233476,-3.34792541e-01,-1,-0.9965471504961283
6.01252685e+05,3.99999642e-01,-1.52595362e-13,3.58923266,2.88166942e-01,-2.34509847,7.39724622e-01,6.46370328e-05,6.20116518,-3.08224039e-01,-1,-0.9963655517387746
6.32710800e+05,3.99999637e-01,-1.42623415e-13,3.58864832,2.79175334e-01,-2.34509847,7.39724622e-01,6.46370328e-05,6.20986637,-2.82039784e-01,-1,-0.9961740701690996
6.65881298e+05,3.99999632e-01,-1.33457901e-13,3.58808375,2.70308404e-01,-2.34509847,7.39724622e-01,6.46370328e-05,6.21845035,-2.56202583e-01,-1,-0.9959721655405501
7.00850684e+05,3.99999628e-01,-1.24989401e-13,3.58753351,2.61557247e-01,-2.34509847,7.39724622e-01,6.46370328e-05,6.22692637,-2.30690442e-01,-1,-0.9957593113081256
7.37713814e+05,3.99999623e-01,-1.17160076e-13,3.58699907,2.52912113e-01,-2.34509847,7.39724622e-01,6.46370328e-05,6.23530294,-2.05477195e-01,-1,-0.9955349300953437
7.76568579e+05,3.99999619e-01,-1.09909886e-13,3.58647972,2.44364720e-01,-2.34509847,7.39724622e-01,6.46370328e-05,6.24358683,-1.80539661e-01,-1,-0.995298426052061
8.17528105e+05,3.99999615e-01,-1.03185799e-13,3.58597787,2.35907334e-01,-2.34509847,7.39724622e-01,6.46370329e-05,6.25178639,-1.55852688e-01,-1,-0.9950491105946146
8.60703764e+05,3.99999611e-01,-9.69435718e-14,3.58548926,2.27533981e-01,-2.34509847,7.39724622e-01,6.46370329e-05,6.25990777,-1.31395381e-01,-1,-0.9947863058157183
9.06222701e+05,3.99999606e-01,-9.11478466e-14,3.58501714,2.19237959e-01,-2.34509847,7.39724622e-01,6.46370329e-05,6.26795757,-1.07151928e-01,-1,-0.994509237799828
9.54194411e+05,3.99999602e-01,-8.57470879e-14,3.58456567,2.11012018e-01,-2.34509847,7.39724622e-01,6.46370329e-05,6.27594193,-8.31036402e-02,-1,-0.9942172400647192
1.00475853e+06,3.99999598e-01,-8.07199523e-14,3.58412456,2.02852908e-01,-2.34509847,7.39724622e-01,6.46370329e-05,6.28386280,-5.92417583e-02,-1,-0.9939094626637099
1.05804430e+06,3.99999594e-01,-7.60216038e-14,3.58369596,1.94755081e-01,-2.34509847,7.39724622e-01,6.46370330e-05,6.29172602,-3.55487804e-02,-1,-0.9935851189170825
1.11421531e+06,3.99999590e-01,-7.16342965e-14,3.58327981,1.86714717e-01,-2.34509847,7.39724622e-01,6.46370330e-05,6.29953540,-1.20138049e-02,-1,-0.9932432130792714
1.17340743e+06,3.99999586e-01,-6.75356823e-14,3.58287671,1.78726951e-01,-2.34509847,7.39724622e-01,6.46370331e-05,6.30729614,1.13792276e-02,-1,-0.9928829181267611
1.23578182e+06,3.99999582e-01,-6.36997972e-14,3.58249067,1.70787149e-01,-2.34509847,7.39724622e-01,6.46370332e-05,6.31501294,3.46408578e-02,-1,-0.9925032530990022
1.30155031e+06,3.99999577e-01,-6.01059203e-14,3.58211187,1.62893349e-01,-2.34509847,7.39724622e-01,6.46370333e-05,6.32268697,5.77735813e-02,-1,-0.9921029286135601
1.37082103e+06,3.99999573e-01,-5.67408501e-14,3.58174818,1.55040167e-01,-2.34509847,7.39724622e-01,6.46370334e-05,6.33032322,8.07986374e-02,-1,-0.9916812864967925
1.44386370e+06,3.99999569e-01,-5.35827212e-14,3.58139404,1.47226153e-01,-2.34509847,7.39724622e-01,6.46370336e-05,6.33792269,1.03717759e-01,-1,-0.9912366849971525
1.52081667e+06,3.99999566e-01,-5.06130391e-14,3.58105256,1.39447381e-01,-2.34509847,7.39724622e-01,6.46370338e-05,6.34548943,1.26538570e-01,-1,-0.9907682819956773
1.60190790e+06,3.99999562e-01,-4.78337310e-14,3.58071533,1.31702317e-01,-2.34509847,7.39724622e-01,6.46370341e-05,6.35302463,1.49268393e-01,-1,-0.9902746899286614
1.68739022e+06,3.99999558e-01,-4.52131018e-14,3.58039643,1.23986369e-01,-2.34509847,7.39724622e-01,6.46370345e-05,6.36053319,1.71919639e-01,-1,-0.9897543698518526
1.77745236e+06,3.99999554e-01,-4.27548163e-14,3.58009589,1.16297120e-01,-2.34509847,7.39724622e-01,6.46370350e-05,6.36801705,1.94503739e-01,-1,-0.9892061729895967
1.87243201e+06,3.99999550e-01,-4.04447935e-14,3.57982113,1.08630720e-01,-2.34509847,7.39724622e-01,6.46370356e-05,6.37548078,2.17032451e-01,-1,-0.9886280438655478
1.97247682e+06,3.99999546e-01,-3.82701603e-14,3.57956223,1.00985123e-01,-2.34509847,7.39724622e-01,6.46370363e-05,6.38292605,2.39506734e-01,-1,-0.988019083752819
2.07797405e+06,3.99999542e-01,-3.62236029e-14,3.57931556,9.33595174e-02,-2.34509847,7.39724622e-01,6.46370373e-05,6.39035323,2.61928890e-01,-1,-0.9873769354487404
2.18909298e+06,3.99999538e-01,-3.42929293e-14,3.57907933,8.57515431e-02,-2.34509847,7.39724622e-01,6.46370386e-05,6.39776386,2.84304350e-01,-1,-0.9867005685673489
2.30621947e+06,3.99999534e-01,-3.24696703e-14,3.57883794,7.81621503e-02,-2.34509847,7.39724622e-01,6.46370402e-05,6.40515753,3.06633075e-01,-1,-0.9859876344275976
2.42961640e+06,3.99999530e-01,-3.07487004e-14,3.57861616,7.05867008e-02,-2.34509847,7.39724622e-01,6.46370423e-05,6.41253810,3.28926360e-01,-1,-0.9852365329121548
