star_age,star_mass,star_mdot,log_Teff,log_R,log_surf_z,surface_h1,surface_he3,log_center_T,log_center_Rho,phase,x
1.00673525e+02,2.79999387e+01,-5.26166379e-07,3.63523701,2.50366581,-2.34509854,7.39732023e-01,4.24450719e-05,5.71821208,-4.97346271,-1,-1.0
1.04561135e+02,2.79999367e+01,-5.20771542e-07,3.63545865,2.50207239,-2.34509854,7.39732023e-01,4.24450719e-05,5.71987712,-4.96704424,-1,-0.9998839428260862
1.08576125e+02,2.79999346e+01,-5.15320537e-07,3.63568130,2.50044537,-2.34509854,7.39732023e-01,4.24450719e-05,5.72158336,-4.96045586,-1,-0.9997640829654796
1.12730150e+02,2.79999325e+01,-5.09813802e-07,3.63590768,2.49878230,-2.34509854,7.39732024e-01,4.24450719e-05,5.72333420,-4.95368344,-1,-0.9996400724804084
1.17031813e+02,2.79999303e+01,-5.04254213e-07,3.63614106,2.49708154,-2.34509855,7.39732024e-01,4.24450719e-05,5.72513215,-4.94671642,-1,-0.9995116545447333
1.21528141e+02,2.79999281e+01,-4.98623937e-07,3.63638356,2.49532954,-2.34509855,7.39732024e-01,4.24450719e-05,5.72699518,-4.93948112,-1,-0.9993774252571582
1.26196107e+02,2.79999258e+01,-4.92871930e-07,3.63662798,2.49354119,-2.34509855,7.39732024e-01,4.24450718e-05,5.72890631,-4.93204386,-1,-0.9992380720448026
1.31034471e+02,2.79999234e+01,-4.87055323e-07,3.63687972,2.49171540,-2.34509855,7.39732024e-01,4.24450718e-05,5.73086760,-4.92439845,-1,-0.9990936319254988
1.36053419e+02,2.79999210e+01,-4.81233211e-07,3.63713735,2.48985071,-2.34509855,7.39732024e-01,4.24450718e-05,5.73288215,-4.91653061,-1,-0.9989438008156651
1.41260836e+02,2.79999185e+01,-4.75409041e-07,3.63739811,2.48794728,-2.34509855,7.39732024e-01,4.24450718e-05,5.73495115,-4.90843346,-1,-0.9987883433236814
1.46664653e+02,2.79999160e+01,-4.69514353e-07,3.63766455,2.48600526,-2.34509856,7.39732024e-01,4.24450718e-05,5.73707576,-4.90010150,-1,-0.9986270226846852
1.52274903e+02,2.79999134e+01,-4.63516899e-07,3.63794349,2.48402400,-2.34509856,7.39732024e-01,4.24450718e-05,5.73925798,-4.89152497,-1,-0.9984595393826178
1.58100992e+02,2.79999107e+01,-4.57515153e-07,3.63822713,2.48200352,-2.34509856,7.39732025e-01,4.24450718e-05,5.74150033,-4.88269555,-1,-0.998285612619308
1.64150331e+02,2.79999080e+01,-4.51531327e-07,3.63851669,2.47994067,-2.34509856,7.39732025e-01,4.24450718e-05,5.74380922,-4.87358506,-1,-0.9981050211535007
1.70432358e+02,2.79999052e+01,-4.45479250e-07,3.63881072,2.47784561,-2.34509856,7.39732025e-01,4.24450718e-05,5.74617402,-4.86423795,-1,-0.997917483231726
1.76955949e+02,2.79999023e+01,-4.39402892e-07,3.63910903,2.47570935,-2.34509857,7.39732025e-01,4.24450718e-05,5.74860902,-4.85459375,-1,-0.9977227338779509
1.83729611e+02,2.79998994e+01,-4.33320039e-07,3.63941401,2.47354377,-2.34509857,7.39732025e-01,4.24450717e-05,5.75110106,-4.84470416,-1,-0.9975205191319327
1.90762497e+02,2.79998964e+01,-4.27244302e-07,3.63973050,2.47134434,-2.34509857,7.39732025e-01,4.24450717e-05,5.75365883,-4.83453553,-1,-0.9973105657483324
1.98063166e+02,2.79998933e+01,-4.21211094e-07,3.64004683,2.46911331,-2.34509857,7.39732025e-01,4.24450717e-05,5.75628289,-4.82408236,-1,-0.9970926182145466
2.05640611e+02,2.79998902e+01,-4.15168227e-07,3.64037069,2.46685148,-2.34509857,7.39732026e-01,4.24450717e-05,5.75897399,-4.81334266,-1,-0.996866408061731
2.13504504e+02,2.79998870e+01,-4.09143308e-07,3.64070278,2.46456068,-2.34509858,7.39732026e-01,4.24450717e-05,5.76173607,-4.80230560,-1,-0.9966316465507922
2.21663841e+02,2.79998837e+01,-4.03143525e-07,3.64103984,2.46224317,-2.34509858,7.39732026e-01,4.24450717e-05,5.76456947,-4.79096802,-1,-0.9963880651233262
2.30128594e+02,2.79998803e+01,-3.97177668e-07,3.64138419,2.45989697,-2.34509858,7.39732026e-01,4.24450717e-05,5.76748146,-4.77930317,-1,-0.9961353660843127
2.38907131e+02,2.79998769e+01,-3.91189417e-07,3.64173341,2.45753145,-2.34509858,7.39732026e-01,4.24450717e-05,5.77046314,-4.76734361,-1,-0.995873299623089
2.48034807e+02,2.79998733e+01,-3.85257219e-07,3.64208646,2.45514665,-2.34509858,7.39732026e-01,4.24450716e-05,5.77352377,-4.75505368,-1,-0.9956008102836332
2.57522422e+02,2.79998697e+01,-3.79505957e-07,3.64244433,2.45274331,-2.34509859,7.39732026e-01,4.24450716e-05,5.77666927,-4.74241279,-1,-0.9953175756525662
2.67358477e+02,2.79998660e+01,-3.73741146e-07,3.64281241,2.45032224,-2.34509860,7.39732027e-01,4.24450716e-05,5.77990045,-4.72941563,-1,-0.9950239390105775
2.77554236e+02,2.79998623e+01,-3.68022138e-07,3.64318519,2.44789578,-2.34509861,7.39732028e-01,4.24450715e-05,5.78320608,-4.71611170,-1,-0.9947195640924539
2.88134828e+02,2.79998584e+01,-3.62444187e-07,3.64355941,2.44546599,-2.34509862,7.39732028e-01,4.24450715e-05,5.78659311,-4.70246660,-1,-0.994403700719879
2.99152051e+02,2.79998545e+01,-3.56994724e-07,3.64394324,2.44302998,-2.34509862,7.39732029e-01,4.24450714e-05,5.79008377,-4.68840265,-1,-0.9940748025624613
3.10568493e+02,2.79998505e+01,-3.51617007e-07,3.64433086,2.44060278,-2.34509862,7.39732029e-01,4.24450714e-05,5.79365345,-4.67401158,-1,-0.9937339864840296
3.22396683e+02,2.79998464e+01,-3.46380420e-07,3.64472308,2.43818359,-2.34509862,7.39732029e-01,4.24450714e-05,5.79731284,-4.65925772,-1,-0.9933808784552108
3.34702169e+02,2.79998422e+01,-3.41262506e-07,3.64511701,2.43577394,-2.34509863,7.39732029e-01,4.24450714e-05,5.80108693,-4.64405885,-1,-0.993013521665616
3.47478731e+02,2.79998379e+01,-3.36252288e-07,3.64552574,2.43338688,-2.34509863,7.39732029e-01,4.24450714e-05,5.80495911,-4.62846986,-1,-0.9926321018014693
3.60711053e+02,2.79998335e+01,-3.31436027e-07,3.64593040,2.43103054,-2.34509863,7.39732029e-01,4.24450714e-05,5.80892240,-4.61252151,-1,-0.9922370760927078
3.74465103e+02,2.79998290e+01,-3.26760735e-07,3.64634435,2.42871051,-2.34509863,7.39732029e-01,4.24450714e-05,5.81299918,-4.59613784,-1,-0.9918264751906446
3.88753973e+02,2.79998244e+01,-3.22338467e-07,3.64675668,2.42643633,-2.34509863,7.39732029e-01,4.24450714e-05,5.81719261,-4.57931430,-1,-0.9913999082586162
4.03549336e+02,2.79998197e+01,-3.18083865e-07,3.64717575,2.42421246,-2.34509863,7.39732030e-01,4.24450714e-05,5.82149712,-4.56208088,-1,-0.9909582209451229
4.18935724e+02,2.79998148e+01,-3.14032000e-07,3.64759931,2.42205566,-2.34509863,7.39732030e-01,4.24450714e-05,5.82593109,-4.54437490,-1,-0.990498889708702
4.34910962e+02,2.79998099e+01,-3.10259584e-07,3.64802516,2.41997619,-2.34509864,7.39732030e-01,4.24450713e-05,5.83049506,-4.52619963,-1,-0.9900219794798258
4.51451260e+02,2.79998048e+01,-3.06716766e-07,3.64845454,2.41797950,-2.34509864,7.39732030e-01,4.24450713e-05,5.83518449,-4.50757777,-1,-0.989528200463522
4.68662811e+02,2.79997995e+01,-3.03462790e-07,3.64888749,2.41608824,-2.34509864,7.39732030e-01,4.24450713e-05,5.84003259,-4.48838722,-1,-0.9890143824705302
4.86522793e+02,2.79997942e+01,-3.00531261e-07,3.64932027,2.41432277,-2.34509864,7.39732030e-01,4.24450713e-05,5.84502042,-4.46872640,-1,-0.9884812068080866
5.05017897e+02,2.79997887e+01,-2.97907962e-07,3.64975650,2.41268692,-2.34509865,7.39732030e-01,4.24450713e-05,5.85015359,-4.44856753,-1,-0.987929070790975
5.24251576e+02,2.79997830e+01,-2.95687728e-07,3.65019495,2.41121830,-2.34509865,7.39732031e-01,4.24450713e-05,5.85545733,-4.42783911,-1,-0.987354886027404
5.44223374e+02,2.79997771e+01,-2.93896917e-07,3.65063605,2.40993549,-2.34509865,7.39732031e-01,4.24450713e-05,5.86094082,-4.40652903,-1,-0.9867586661303828
5.64910556e+02,2.79997710e+01,-2.92533017e-07,3.65107383,2.40885130,-2.34509866,7.39732031e-01,4.24450712e-05,5.86660024,-4.38465968,-1,-0.9861410898099283
5.86338110e+02,2.79997648e+01,-2.91630951e-07,3.65151840,2.40799247,-2.34509866,7.39732031e-01,4.24450712e-05,5.87244661,-4.36220842,-1,-0.9855014110970104
6.08658940e+02,2.79997583e+01,-2.91399884e-07,3.65195836,2.40743725,-2.34509866,7.39732031e-01,4.24450712e-05,5.87852413,-4.33905409,-1,-0.9848350653346495
6.31776715e+02,2.79997515e+01,-2.91797104e-07,3.65240007,2.40718466,-2.34509866,7.39732032e-01,4.24450712e-05,5.88481453,-4.31526931,-1,-0.9841449283009253
6.55707037e+02,2.79997445e+01,-2.92931883e-07,3.65284055,2.40727340,-2.34509866,7.39732032e-01,4.24450712e-05,5.89132914,-4.29083501,-1,-0.9834305342279167
6.80469459e+02,2.79997372e+01,-2.94929316e-07,3.65327911,2.40775071,-2.34509866,7.39732032e-01,4.24450712e-05,5.89808000,-4.26572918,-1,-0.9826912993981415
7.06213878e+02,2.79997296e+01,-2.98147935e-07,3.65371496,2.40874559,-2.34509867,7.39732032e-01,4.24450712e-05,5.90512049,-4.23981849,-1,-0.9819227489228637
7.32792091e+02,2.79997215e+01,-3.02624543e-07,3.65414575,2.41023998,-2.34509867,7.39732032e-01,4.24450712e-05,5.91241877,-4.21321267,-1,-0.9811293071196837
7.60244583e+02,2.79997131e+01,-3.08688839e-07,3.65457070,2.41232851,-2.34509866,7.39732032e-01,4.24450712e-05,5.92000053,-4.18586346,-1,-0.9803097653862245
7.88596594e+02,2.79997042e+01,-3.16778987e-07,3.65498959,2.41512073,-2.34509866,7.39732032e-01,4.24450712e-05,5.92789019,-4.15773700,-1,-0.9794633702304772
8.17795424e+02,2.79996947e+01,-3.27254665e-07,3.65540469,2.41869551,-2.34509866,7.39732032e-01,4.24450712e-05,5.93609018,-4.12886429,-1,-0.9785916949103213
8.47780806e+02,2.79996846e+01,-3.40516212e-07,3.65581323,2.42312691,-2.34509866,7.39732031e-01,4.24450712e-05,5.94460290,-4.09927306,-1,-0.9776965385819736
8.78486697e+02,2.79996738e+01,-3.57059441e-07,3.65621035,2.42850275,-2.34509865,7.39732031e-01,4.24450712e-05,5.95342793,-4.06899455,-1,-0.9767798728331029
9.09833977e+02,2.79996621e+01,-3.77605855e-07,3.65658967,2.43492281,-2.34509865,7.39732031e-01,4.24450713e-05,5.96256941,-4.03806436,-1,-0.9758440596402449
9.41686452e+02,2.79996496e+01,-4.02728727e-07,3.65695170,2.44240702,-2.34509864,7.39732030e-01,4.24450713e-05,5.97201028,-4.00657577,-1,-0.9748931648152336
9.73910473e+02,2.79996359e+01,-4.33418860e-07,3.65731008,2.45099911,-2.34509863,7.39732030e-01,4.24450713e-05,5.98174179,-3.97461957,-1,-0.9739311781937872
1.00637681e+03,2.79996211e+01,-4.70636501e-07,3.65766657,2.46066316,-2.34509862,7.39732029e-01,4.24450714e-05,5.99174781,-3.94227468,-1,-0.9729619576908162
1.03895120e+03,2.79996048e+01,-5.15246989e-07,3.65803398,2.47132202,-2.34509861,7.39732028e-01,4.24450714e-05,6.00200153,-3.90962110,-1,-0.9719895114718363
1.07076262e+03,2.79995874e+01,-5.68035194e-07,3.65855067,2.48324541,-2.34509860,7.39732028e-01,4.24450715e-05,6.01224238,-3.87747896,-1,-0.9710398422654636
1.09829563e+03,2.79995705e+01,-6.45236067e-07,3.65984792,2.49702946,-2.34509859,7.39732027e-01,4.24450716e-05,6.02136801,-3.84929391,-1,-0.9702178968208479
1.12557905e+03,2.79995513e+01,-7.38351033e-07,3.66178981,2.50976890,-2.34509857,7.39732025e-01,4.24450717e-05,6.03070865,-3.82092802,-1,-0.9694034024091386
1.15593272e+03,2.79995272e+01,-8.29174472e-07,3.66412587,2.52008114,-2.34509856,7.39732025e-01,4.24450718e-05,6.04141731,-3.78889201,-1,-0.9684972515457253
1.18858235e+03,2.79994983e+01,-9.18807632e-07,3.66680723,2.52842828,-2.34509854,7.39732024e-01,4.24450718e-05,6.05322310,-3.75401908,-1,-0.9675225591802017
1.22242730e+03,2.79994653e+01,-1.01162782e-06,3.66995423,2.53516978,-2.34509854,7.39732023e-01,4.24450719e-05,6.06572424,-3.71753904,-1,-0.9665121828183093
1.25688173e+03,2.79994284e+01,-1.10760848e-06,3.67366734,2.54033524,-2.34509853,7.39732023e-01,4.24450719e-05,6.07867828,-3.68013976,-1,-0.9654836115947008
1.29161202e+03,2.79993879e+01,-1.20587080e-06,3.67800296,2.54385937,-2.34509852,7.39732022e-01,4.24450720e-05,6.09196145,-3.64216669,-1,-0.9644468050974931
1.32648904e+03,2.79993438e+01,-1.30561120e-06,3.68290156,2.54589290,-2.34509852,7.39732022e-01,4.24450720e-05,6.10547269,-3.60393885,-1,-0.963405618256288
1.36155739e+03,2.79992959e+01,-1.40696764e-06,3.68823279,2.54674448,-2.34509852,7.39732022e-01,4.24450720e-05,6.11923032,-3.56540332,-1,-0.9623587196232404
1.39683197e+03,2.79992442e+01,-1.51002221e-06,3.69394120,2.54652905,-2.34509851,7.39732022e-01,4.24450720e-05,6.13321542,-3.52658776,-1,-0.9613056643872988
1.43230921e+03,2.79991885e+01,-1.61401909e-06,3.70000055,2.54527236,-2.34509851,7.39732021e-01,4.24450720e-05,6.14739075,-3.48753911,-1,-0.9602465591239973
1.46794142e+03,2.79991289e+01,-1.71700535e-06,3.70641355,2.54291350,-2.34509851,7.39732021e-01,4.24450721e-05,6.16171806,-3.44838029,-1,-0.9591828275272307
1.50366336e+03,2.79990655e+01,-1.81689716e-06,3.71319235,2.53935306,-2.34509850,7.39732021e-01,4.24450721e-05,6.17614039,-3.40924125,-1,-0.9581164172126362
1.53937337e+03,2.79989987e+01,-1.91103958e-06,3.72034818,2.53449452,-2.34509850,7.39732021e-01,4.24450721e-05,6.19060044,-3.37023167,-1,-0.9570503630454137
1.57501547e+03,2.79989289e+01,-1.99680307e-06,3.72788476,2.52823937,-2.34509850,7.39732021e-01,4.24450721e-05,6.20500918,-3.33160683,-1,-0.9559863362015802
1.61048364e+03,2.79988566e+01,-2.07100926e-06,3.73580108,2.52051193,-2.34509850,7.39732021e-01,4.24450721e-05,6.21930419,-3.29348545,-1,-0.9549275017058112
1.64564985e+03,2.79987825e+01,-2.13152666e-06,3.74408513,2.51128537,-2.34509850,7.39732021e-01,4.24450721e-05,6.23343423,-3.25595162,-1,-0.9538776816493082
1.68045030e+03,2.79987074e+01,-2.17626630e-06,3.75271389,2.50056096,-2.34509850,7.39732021e-01,4.24450721e-05,6.24732551,-3.21918324,-1,-0.9528387806592575
1.71487741e+03,2.79986320e+01,-2.20380299e-06,3.76165445,2.48835967,-2.34509849,7.39732021e-01,4.24450721e-05,6.26092958,-3.18329331,-1,-0.9518110250220867
1.74895285e+03,2.79985566e+01,-2.21407408e-06,3.77086404,2.47477817,-2.34509850,7.39732021e-01,4.24450720e-05,6.27421609,-3.14839288,-1,-0.9507937678213203
1.78269011e+03,2.79984820e+01,-2.20687324e-06,3.78030469,2.45988555,-2.34509850,7.39732021e-01,4.24450720e-05,6.28718898,-3.11438052,-1,-0.9497866063387648
1.81614201e+03,2.79984086e+01,-2.18387614e-06,3.78993178,2.44382934,-2.34509852,7.39732023e-01,4.24450719e-05,6.29986787,-3.08114650,-1,-0.9487879637341698
1.84947055e+03,2.79983364e+01,-2.14710534e-06,3.79970027,2.42675688,-2.34509852,7.39732023e-01,4.24450719e-05,6.31225970,-3.04870069,-1,-0.947793003806843
1.88279000e+03,2.79982657e+01,-2.09818259e-06,3.80957520,2.40878354,-2.34509855,7.39732026e-01,4.24450716e-05,6.32441847,-3.01689802,-1,-0.9467983152441105
1.91628682e+03,2.79981965e+01,-2.04007752e-06,3.81951961,2.39006891,-2.34509860,7.39732028e-01,4.24450715e-05,6.33639210,-2.98563334,-1,-0.9457983316386815
1.95019663e+03,2.79981285e+01,-1.97392194e-06,3.82950341,2.37069070,-2.34509850,7.39732023e-01,4.24450719e-05,6.34816782,-2.95499034,-1,-0.9447860190053269
1.98464794e+03,2.79980619e+01,-1.90221323e-06,3.83950270,2.35079463,-2.34509850,7.39732023e-01,4.24450718e-05,6.35983801,-2.92472119,-1,-0.9437575409233612
2.01984413e+03,2.79979965e+01,-1.82634899e-06,3.84949651,2.33046867,-2.34509850,7.39732023e-01,4.24450718e-05,6.37140412,-2.89486789,-1,-0.9427068258711991
2.05593782e+03,2.79979321e+01,-1.74811112e-06,3.85946920,2.30979730,-2.34509848,7.39732023e-01,4.24450718e-05,6.38287829,-2.86540178,-1,-0.9416293176701391
2.09308878e+03,2.79978689e+01,-1.66854897e-06,3.86940745,2.28883488,-2.34509847,7.39732024e-01,4.24450717e-05,6.39424098,-2.83635748,-1,-0.9405202466918807
2.13138232e+03,2.79978067e+01,-1.58894353e-06,3.87930310,2.26766993,-2.34509847,7.39732025e-01,4.24450717e-05,6.40551096,-2.80756863,-1,-0.9393770661692569
2.17104288e+03,2.79977455e+01,-1.50959011e-06,3.88913868,2.24631163,-2.34509847,7.39732026e-01,4.24450716e-05,6.41661231,-2.77911161,-1,-0.9381930758745922
2.21222637e+03,2.79976852e+01,-1.43118166e-06,3.89890061,2.22480756,-2.34509849,7.39732026e-01,4.24450715e-05,6.42750983,-2.75083096,-1,-0.9369636214125165
2.25499743e+03,2.79976259e+01,-1.35476169e-06,3.90858232,2.20325981,-2.34509850,7.39732025e-01,4.24450716e-05,6.43825020,-2.72225511,-1,-0.9356867730792473
2.29968887e+03,2.79975673e+01,-1.28018667e-06,3.91815438,2.18165769,-2.34509850,7.39732025e-01,4.24450716e-05,6.44876103,-2.69340497,-1,-0.9343525954676708
2.34641915e+03,2.79975094e+01,-1.20817107e-06,3.92760663,2.16009194,-2.34509851,7.39732026e-01,4.24450716e-05,6.45913166,-2.66389436,-1,-0.9329575521806631
2.39535831e+03,2.79974523e+01,-1.13896653e-06,3.93692554,2.13860794,-2.34509851,7.39732026e-01,4.24450715e-05,6.46944343,-2.63362164,-1,-0.9314965669986828
2.44671076e+03,2.79973958e+01,-1.07290105e-06,3.94609712,2.11724889,-2.34509852,7.39732028e-01,4.24450714e-05,6.47979197,-2.60259269,-1,-0.929963537651461
2.50050095e+03,2.79973400e+01,-1.01043100e-06,3.95512559,2.09609023,-2.34509854,7.39732028e-01,4.24450713e-05,6.49029992,-2.57067225,-1,-0.9283577342309302
2.55699731e+03,2.79972849e+01,-9.51316912e-07,3.96399211,2.07515087,-2.34509856,7.39732031e-01,4.24450710e-05,6.50098239,-2.53799459,-1,-0.9266711432719552
2.61625428e+03,2.79972305e+01,-8.95994178e-07,3.97270105,2.05450383,-2.34509857,7.39732030e-01,4.24450711e-05,6.51189445,-2.50446007,-1,-0.9249021395722788
2.67848954e+03,2.79971766e+01,-8.44292694e-07,3.98123952,2.03418442,-2.34509864,7.39732030e-01,4.24450712e-05,6.52301761,-2.47014098,-1,-0.9230442247111187
2.74390132e+03,2.79971232e+01,-7.96375434e-07,3.98960059,2.01425586,-2.34509878,7.39732032e-01,4.24450710e-05,6.53434861,-2.43506480,-1,-0.9210914809103065
2.81237538e+03,2.79970705e+01,-7.52628198e-07,3.99781267,1.99481734,-2.34509885,7.39732046e-01,4.24450695e-05,6.54594326,-2.39902731,-1,-0.919047318586923
2.88419816e+03,2.79970200e+01,-6.44656215e-07,4.00585971,1.97590818,-2.34509864,7.39732044e-01,4.24450696e-05,6.55774251,-2.36224315,-1,-0.9169031866216699
2.95942857e+03,2.79969780e+01,-4.98394551e-07,4.01375342,1.95761029,-2.34509863,7.39732054e-01,4.24450686e-05,6.56974162,-2.32474166,-1,-0.9146573263689745
3.03786707e+03,2.79969451e+01,-3.67523905e-07,4.02153250,1.94001299,-2.34509866,7.39732056e-01,4.24450685e-05,6.58196457,-2.28646364,-1,-0.9123156947145536
3.11956637e+03,2.79969209e+01,-2.49535777e-07,4.02920456,1.92315857,-2.34509873,7.39732053e-01,4.24450688e-05,6.59436585,-2.24758582,-1,-0.909876718101997
3.20413878e+03,2.79969052e+01,-1.41684539e-07,4.03681432,1.90707947,-2.34509879,7.39732067e-01,4.24450674e-05,6.60694818,-2.20812045,-1,-0.9073519702760359
3.29147680e+03,2.79968977e+01,-6.19778419e-08,4.04437735,1.89177074,-2.34509885,7.39732099e-01,4.24450642e-05,6.61967176,-2.16823196,-1,-0.9047446604439198
3.38134548e+03,2.79968921e+01,-6.33607049e-08,4.05191324,1.87717538,-2.34509890,7.39732128e-01,4.24450612e-05,6.63250642,-2.12805930,-1,-0.9020618025893073
3.47344889e+03,2.79968861e+01,-6.51857363e-08,4.05944657,1.86322021,-2.34509890,7.39732123e-01,4.24450617e-05,6.64543981,-2.08766397,-1,-0.8993122311373278
3.56762070e+03,2.79968799e+01,-6.74593961e-08,4.06699098,1.84979374,-2.34509898,7.39732113e-01,4.24450627e-05,6.65845949,-2.04711120,-1,-0.8965009115525563
3.66374713e+03,2.79968732e+01,-7.01534349e-08,4.07455673,1.83678751,-2.34509896,7.39732103e-01,4.24450636e-05,6.67155437,-2.00645629,-1,-0.8936312405196519
3.76165123e+03,2.79968662e+01,-7.32712141e-08,4.08216101,1.82409218,-2.34509879,7.39732103e-01,4.24450635e-05,6.68474472,-1.96565121,-1,-0.8907085005430132
3.86147384e+03,2.79968587e+01,-7.67697576e-08,4.08979688,1.81161264,-2.34509888,7.39732102e-01,4.24450636e-05,6.69800705,-1.92478339,-1,-0.8877284871133466
3.96307138e+03,2.79968506e+01,-8.06347256e-08,4.09747636,1.79927856,-2.34509886,7.39732089e-01,4.24450648e-05,6.71135649,-1.88379919,-1,-0.884695486537414
4.06657196e+03,2.79968420e+01,-8.48686024e-08,4.10519785,1.78702839,-2.34509892,7.39732089e-01,4.24450647e-05,6.72478664,-1.84272580,-1,-0.8816056743357668
4.17203975e+03,2.79968328e+01,-8.94499730e-08,4.11295867,1.77482050,-2.34509892,7.39732090e-01,4.24450645e-05,6.73828861,-1.80159830,-1,-0.8784571348355747
4.27943698e+03,2.79968229e+01,-9.43898320e-08,4.12076421,1.76261979,-2.34509901,7.39732083e-01,4.24450651e-05,6.75186387,-1.76039988,-1,-0.8752509955880736
4.38873711e+03,2.79968122e+01,-9.97042277e-08,4.12861934,1.75039783,-2.34509897,7.39732090e-01,4.24450641e-05,6.76552135,-1.71910827,-1,-0.8719880488942905
4.50001766e+03,2.79968007e+01,-1.05387500e-07,4.13652001,1.73813690,-2.34509911,7.39732103e-01,4.24450626e-05,6.77924599,-1.67776560,-1,-0.8686659805426347
