star_age,star_mass,star_mdot,log_Teff,log_R,log_surf_z,surface_h1,surface_he3,log_center_T,log_center_Rho,phase,x
2.21050304e+02,2.59999565e+01,-1.70181339e-07,3.58966429,2.43462797,-1.34509872,6.38455401e-01,5.25064650e-05,5.79289965,-4.73853082,-1,-1.0
2.28935381e+02,2.59999552e+01,-1.68618468e-07,3.58989095,2.43315228,-1.34509871,6.38455401e-01,5.25064650e-05,5.79450468,-4.73192163,-1,-0.9997557436898694
2.37011178e+02,2.59999538e+01,-1.67044209e-07,3.59012137,2.43165544,-1.34509871,6.38455401e-01,5.25064650e-05,5.79614040,-4.72518296,-1,-0.9995055794395287
2.45323932e+02,2.59999524e+01,-1.65455800e-07,3.59035645,2.43013233,-1.34509871,6.38455401e-01,5.25064650e-05,5.79781426,-4.71828339,-1,-0.9992480749637875
2.54048351e+02,2.59999510e+01,-1.63846867e-07,3.59059943,2.42856614,-1.34509871,6.38455401e-01,5.25064650e-05,5.79955340,-4.71110983,-1,-0.9989778183267283
2.63015525e+02,2.59999496e+01,-1.62227054e-07,3.59084712,2.42697590,-1.34509871,6.38455401e-01,5.25064650e-05,5.80133059,-4.70377583,-1,-0.9987000418594167
2.72246642e+02,2.59999481e+01,-1.60596034e-07,3.59109988,2.42535991,-1.34509871,6.38455401e-01,5.25064650e-05,5.80314898,-4.69626827,-1,-0.9984140892204248
2.81887686e+02,2.59999465e+01,-1.58951725e-07,3.59135979,2.42370604,-1.34509871,6.38455401e-01,5.25064650e-05,5.80503039,-4.68849746,-1,-0.9981154382582026
2.91861736e+02,2.59999450e+01,-1.57298049e-07,3.59162552,2.42202345,-1.34509872,6.38455401e-01,5.25064649e-05,5.80696220,-4.68051537,-1,-0.9978064717572974
3.02147901e+02,2.59999434e+01,-1.55636429e-07,3.59189666,2.42031501,-1.34509872,6.38455401e-01,5.25064649e-05,5.80894098,-4.67233638,-1,-0.9974878368589578
3.12765774e+02,2.59999417e+01,-1.53967312e-07,3.59217342,2.41858013,-1.34509872,6.38455402e-01,5.25064649e-05,5.81096934,-4.66394956,-1,-0.9971589266301274
3.23808679e+02,2.59999401e+01,-1.52291044e-07,3.59245702,2.41681350,-1.34509872,6.38455402e-01,5.25064649e-05,5.81306025,-4.65530089,-1,-0.9968168501699454
3.35262201e+02,2.59999383e+01,-1.50610668e-07,3.59274714,2.41501880,-1.34509873,6.38455403e-01,5.25064649e-05,5.81521099,-4.64640304,-1,-0.9964620540123784
3.47094992e+02,2.59999366e+01,-1.48929202e-07,3.59304306,2.41319984,-1.34509873,6.38455403e-01,5.25064649e-05,5.81741613,-4.63727940,-1,-0.9960955092255352
3.59325956e+02,2.59999348e+01,-1.47248032e-07,3.59334484,2.41135704,-1.34509873,6.38455404e-01,5.25064649e-05,5.81967802,-4.62792019,-1,-0.9957166302195369
3.71973701e+02,2.59999329e+01,-1.45568205e-07,3.59365260,2.40949118,-1.34509874,6.38455404e-01,5.25064649e-05,5.82199893,-4.61831629,-1,-0.9953248405737068
3.85056942e+02,2.59999311e+01,-1.43890855e-07,3.59396651,2.40760333,-1.34509874,6.38455405e-01,5.25064649e-05,5.82438083,-4.60846090,-1,-0.9949195605528257
3.98619322e+02,2.59999291e+01,-1.42218546e-07,3.59428689,2.40569362,-1.34509874,6.38455405e-01,5.25064649e-05,5.82682929,-4.59833273,-1,-0.9944994382261332
4.12691662e+02,2.59999272e+01,-1.40553709e-07,3.59461393,2.40376370,-1.34509875,6.38455406e-01,5.25064649e-05,5.82934849,-4.58791455,-1,-0.9940635188504183
4.27248387e+02,2.59999251e+01,-1.38899160e-07,3.59494690,2.40181721,-1.34509875,6.38455407e-01,5.25064649e-05,5.83193386,-4.57722585,-1,-0.993612594663364
4.42308814e+02,2.59999231e+01,-1.37256051e-07,3.59528608,2.39985608,-1.34509876,6.38455407e-01,5.25064649e-05,5.83458734,-4.56626125,-1,-0.9931460672815754
4.57892510e+02,2.59999210e+01,-1.35626971e-07,3.59563152,2.39788235,-1.34509876,6.38455408e-01,5.25064649e-05,5.83731122,-4.55501373,-1,-0.992663330577399
4.74019287e+02,2.59999188e+01,-1.34014554e-07,3.59598286,2.39589840,-1.34509877,6.38455409e-01,5.25064649e-05,5.84010800,-4.54347287,-1,-0.9921637708338075
4.90709398e+02,2.59999166e+01,-1.32421131e-07,3.59634036,2.39390712,-1.34509877,6.38455409e-01,5.25064648e-05,5.84297972,-4.53163342,-1,-0.991646760672901
5.07983426e+02,2.59999143e+01,-1.30850671e-07,3.59670396,2.39191147,-1.34509878,6.38455410e-01,5.25064648e-05,5.84592886,-4.51948780,-1,-0.9911116624943578
5.25862034e+02,2.59999120e+01,-1.29305511e-07,3.59707340,2.38991476,-1.34509878,6.38455411e-01,5.25064648e-05,5.84895813,-4.50702522,-1,-0.9905578362196934
5.44366606e+02,2.59999097e+01,-1.27787700e-07,3.59744884,2.38792062,-1.34509879,6.38455412e-01,5.25064648e-05,5.85207050,-4.49424082,-1,-0.9899846194359808
5.63519110e+02,2.59999072e+01,-1.26301594e-07,3.59783010,2.38593308,-1.34509879,6.38455413e-01,5.25064648e-05,5.85526817,-4.48112846,-1,-0.9893913316397042
5.83341890e+02,2.59999048e+01,-1.24850766e-07,3.59821698,2.38395653,-1.34509880,6.38455413e-01,5.25064648e-05,5.85855369,-4.46768014,-1,-0.9887772806799823
6.03857931e+02,2.59999022e+01,-1.23438231e-07,3.59860961,2.38199583,-1.34509881,6.38455414e-01,5.25064648e-05,5.86193002,-4.45388650,-1,-0.9881417545496542
6.25091000e+02,2.59998996e+01,-1.22068273e-07,3.59900786,2.38005641,-1.34509881,6.38455415e-01,5.25064648e-05,5.86540068,-4.43973878,-1,-0.9874840170175174
6.47065528e+02,2.59998970e+01,-1.20744694e-07,3.59941147,2.37814392,-1.34509882,6.38455416e-01,5.25064648e-05,5.86896861,-4.42523140,-1,-0.9868033112836176
6.69806586e+02,2.59998943e+01,-1.19470765e-07,3.59982022,2.37626464,-1.34509882,6.38455417e-01,5.25064648e-05,5.87263870,-4.41035094,-1,-0.9860988607226977
6.93340432e+02,2.59998915e+01,-1.18251417e-07,3.60023411,2.37442570,-1.34509883,6.38455418e-01,5.25064647e-05,5.87641477,-4.39509163,-1,-0.9853698519397598
7.17694295e+02,2.59998886e+01,-1.17093112e-07,3.60065264,2.37263480,-1.34509884,6.38455419e-01,5.25064647e-05,5.88030058,-4.37944120,-1,-0.9846154414611041
7.42896363e+02,2.59998857e+01,-1.16000370e-07,3.60107576,2.37090054,-1.34509884,6.38455420e-01,5.25064647e-05,5.88430080,-4.36339336,-1,-0.9838347561060543
7.68975727e+02,2.59998827e+01,-1.14979016e-07,3.60150339,2.36923213,-1.34509885,6.38455421e-01,5.25064647e-05,5.88842007,-4.34693542,-1,-0.9830268947216705
7.95962632e+02,2.59998796e+01,-1.14035713e-07,3.60193564,2.36764000,-1.34509886,6.38455422e-01,5.25064647e-05,5.89266427,-4.33005436,-1,-0.982190920407514
8.23919096e+02,2.59998765e+01,-1.13181921e-07,3.60237159,2.36613910,-1.34509886,6.38455423e-01,5.25064647e-05,5.89704401,-4.31272324,-1,-0.9813249120297975
8.52862556e+02,2.59998732e+01,-1.12423986e-07,3.60281120,2.36474151,-1.34509887,6.38455424e-01,5.25064647e-05,5.90156228,-4.29493763,-1,-0.9804283294419531
8.82809516e+02,2.59998699e+01,-1.11769345e-07,3.60325383,2.36346026,-1.34509888,6.38455425e-01,5.25064646e-05,5.90622434,-4.27668935,-1,-0.9795006613989867
9.13792920e+02,2.59998664e+01,-1.11227782e-07,3.60369958,2.36231109,-1.34509888,6.38455426e-01,5.25064646e-05,5.91103644,-4.25796345,-1,-0.978540887393441
9.45846655e+02,2.59998629e+01,-1.10810875e-07,3.60414769,2.36131204,-1.34509889,6.38455427e-01,5.25064646e-05,5.91600175,-4.23875800,-1,-0.9775479577065141
9.79004890e+02,2.59998592e+01,-1.10531201e-07,3.60459759,2.36048282,-1.34509890,6.38455428e-01,5.25064646e-05,5.92111754,-4.21908023,-1,-0.9765208138838801
1.01329849e+03,2.59998554e+01,-1.10403576e-07,3.60504803,2.35984488,-1.34509890,6.38455429e-01,5.25064646e-05,5.92642925,-4.19883588,-1,-0.9754584998193383
1.04876321e+03,2.59998515e+01,-1.10445666e-07,3.60549872,2.35942350,-1.34509891,6.38455430e-01,5.25064646e-05,5.93192544,-4.17804968,-1,-0.9743599079289845
1.08543409e+03,2.59998474e+01,-1.10682992e-07,3.60594859,2.35924719,-1.34509891,6.38455430e-01,5.25064646e-05,5.93761587,-4.15670271,-1,-0.9732239527774948
1.12334504e+03,2.59998432e+01,-1.11145232e-07,3.60639673,2.35934927,-1.34509892,6.38455431e-01,5.25064645e-05,5.94351260,-4.13477470,-1,-0.9720495839335956
1.16252670e+03,2.59998388e+01,-1.11869623e-07,3.60684144,2.35976658,-1.34509892,6.38455432e-01,5.25064645e-05,5.94962831,-4.11224538,-1,-0.9708358522609193
1.20300758e+03,2.59998343e+01,-1.12906983e-07,3.60727950,2.36054167,-1.34509893,6.38455432e-01,5.25064645e-05,5.95597448,-4.08910088,-1,-0.9695818746041837
1.24480662e+03,2.59998295e+01,-1.14324765e-07,3.60770944,2.36172183,-1.34509893,6.38455433e-01,5.25064645e-05,5.96256387,-4.06531970,-1,-0.9682870642583364
1.28791999e+03,2.59998245e+01,-1.16199776e-07,3.60813281,2.36335695,-1.34509893,6.38455433e-01,5.25064645e-05,5.96940604,-4.04089816,-1,-0.9669515398654236
1.33231838e+03,2.59998192e+01,-1.18609608e-07,3.60854671,2.36549178,-1.34509893,6.38455432e-01,5.25064645e-05,5.97650453,-4.01583890,-1,-0.9655762093623557
1.37795459e+03,2.59998137e+01,-1.21618983e-07,3.60894784,2.36816740,-1.34509892,6.38455432e-01,5.25064645e-05,5.98386001,-3.99016104,-1,-0.964162534865208
1.42499483e+03,2.59998078e+01,-1.25452376e-07,3.60933421,2.37155586,-1.34509892,6.38455431e-01,5.25064645e-05,5.99152631,-3.96375681,-1,-0.9627053676809105
1.47316258e+03,2.59998016e+01,-1.30102034e-07,3.60970140,2.37560499,-1.34509891,6.38455430e-01,5.25064646e-05,5.99946018,-3.93675156,-1,-0.9612132735793192
1.52247603e+03,2.59997950e+01,-1.35750444e-07,3.61004125,2.38042753,-1.34509890,6.38455429e-01,5.25064646e-05,6.00768549,-3.90911410,-1,-0.9596856890881581
1.57285451e+03,2.59997879e+01,-1.42589311e-07,3.61034354,2.38609347,-1.34509889,6.38455427e-01,5.25064646e-05,6.01620611,-3.88086628,-1,-0.958125113124881
1.62415171e+03,2.59997803e+01,-1.50781413e-07,3.61060523,2.39263942,-1.34509888,6.38455426e-01,5.25064646e-05,6.02501310,-3.85205734,-1,-0.9565360779395515
1.67620226e+03,2.59997721e+01,-1.60511297e-07,3.61082815,2.40006628,-1.34509887,6.38455424e-01,5.25064646e-05,6.03409205,-3.82274909,-1,-0.9549237062045299
1.72889960e+03,2.59997632e+01,-1.72104352e-07,3.61100465,2.40842563,-1.34509885,6.38455422e-01,5.25064646e-05,6.04344857,-3.79296275,-1,-0.9532912988327189
1.78209892e+03,2.59997536e+01,-1.85759356e-07,3.61112819,2.41766939,-1.34509884,6.38455420e-01,5.25064647e-05,6.05306598,-3.76275343,-1,-0.9516433416086286
1.83570904e+03,2.59997431e+01,-2.01755890e-07,3.61119464,2.42776559,-1.34509882,6.38455417e-01,5.25064647e-05,6.06294384,-3.73214062,-1,-0.949982659018356
1.88959458e+03,2.59997316e+01,-2.20431153e-07,3.61123243,2.43863133,-1.34509879,6.38455412e-01,5.25064647e-05,6.07306823,-3.70117349,-1,-0.9483134447329665
1.94374438e+03,2.59997189e+01,-2.42117326e-07,3.61123864,2.45018545,-1.34509875,6.38455407e-01,5.25064648e-05,6.08344910,-3.66982733,-1,-0.9466360444561766
1.99815059e+03,2.59997048e+01,-2.67243636e-07,3.61122127,2.46234329,-1.34509871,6.38455402e-01,5.25064649e-05,6.09409430,-3.63807958,-1,-0.9449507013577145
2.05232777e+03,2.59996894e+01,-2.96004876e-07,3.61125601,2.47506459,-1.34509868,6.38455397e-01,5.25064649e-05,6.10491018,-3.60620075,-1,-0.9432724529296926
2.09877544e+03,2.59996746e+01,-3.32616781e-07,3.61228474,2.48866318,-1.34509866,6.38455394e-01,5.25064650e-05,6.11441840,-3.57851434,-1,-0.94183364180732
2.14279332e+03,2.59996587e+01,-3.78541115e-07,3.61416076,2.50116177,-1.34509863,6.38455390e-01,5.25064650e-05,6.12369398,-3.55183086,-1,-0.9404700983760292
2.18888088e+03,2.59996399e+01,-4.26500703e-07,3.61662846,2.51182470,-1.34509862,6.38455387e-01,5.25064650e-05,6.13367894,-3.52342957,-1,-0.9390424423939097
2.23735197e+03,2.59996176e+01,-4.76002473e-07,3.61964310,2.52058462,-1.34509860,6.38455386e-01,5.25064651e-05,6.14445352,-3.49310474,-1,-0.9375409517183705
2.28727134e+03,2.59995922e+01,-5.27195570e-07,3.62319621,2.52761545,-1.34509860,6.38455384e-01,5.25064651e-05,6.15580236,-3.46146068,-1,-0.9359945976218607
2.33802711e+03,2.59995637e+01,-5.80510612e-07,3.62724324,2.53314487,-1.34509859,6.38455383e-01,5.25064651e-05,6.16758459,-3.42889505,-1,-0.9344223343328607
2.38925164e+03,2.59995321e+01,-6.36772197e-07,3.63169257,2.53749104,-1.34509858,6.38455382e-01,5.25064651e-05,6.17969569,-3.39568677,-1,-0.9328355502487009
2.44077936e+03,2.59994973e+01,-6.96019980e-07,3.63648547,2.54083935,-1.34509858,6.38455381e-01,5.25064651e-05,6.19208170,-3.36197978,-1,-0.9312393742371485
2.49249646e+03,2.59994593e+01,-7.58044196e-07,3.64160824,2.54322644,-1.34509857,6.38455380e-01,5.25064651e-05,6.20470775,-3.32786952,-1,-0.9296373317946136
2.54430161e+03,2.59994179e+01,-8.22573218e-07,3.64704588,2.54467673,-1.34509856,6.38455380e-01,5.25064651e-05,6.21752849,-3.29347276,-1,-0.9280325618241031
2.59609242e+03,2.59993732e+01,-8.89022698e-07,3.65281220,2.54511615,-1.34509856,6.38455379e-01,5.25064651e-05,6.23049969,-3.25890756,-1,-0.9264282360642817
2.64772231e+03,2.59993252e+01,-9.56599959e-07,3.65892762,2.54444092,-1.34509855,6.38455378e-01,5.25064651e-05,6.24356205,-3.22432241,-1,-0.9248288951290125
2.69902947e+03,2.59992740e+01,-1.02369123e-06,3.66541841,2.54251101,-1.34509855,6.38455377e-01,5.25064652e-05,6.25664793,-3.18988391,-1,-0.9232395514124094
2.74980996e+03,2.59992201e+01,-1.08817074e-06,3.67230563,2.53919062,-1.34509854,6.38455377e-01,5.25064652e-05,6.26967759,-3.15578529,-1,-0.921666522371092
2.79984904e+03,2.59991639e+01,-1.14792617e-06,3.67960606,2.53433800,-1.34509854,6.38455376e-01,5.25064652e-05,6.28256409,-3.12224260,-1,-0.9201164600136629
2.84893453e+03,2.59991060e+01,-1.20077450e-06,3.68732308,2.52784060,-1.34509853,6.38455375e-01,5.25064652e-05,6.29521929,-3.08946990,-1,-0.9185959370475139
2.89688802e+03,2.59990472e+01,-1.24451584e-06,3.69544374,2.51963160,-1.34509853,6.38455375e-01,5.25064652e-05,6.30756493,-3.05765911,-1,-0.9171104800855482
2.94358422e+03,2.59989882e+01,-1.27733734e-06,3.70394182,2.50968281,-1.34509852,6.38455374e-01,5.25064652e-05,6.31953630,-3.02697080,-1,-0.9156639702405434
2.98895632e+03,2.59989297e+01,-1.29801818e-06,3.71277823,2.49801623,-1.34509852,6.38455373e-01,5.25064652e-05,6.33108732,-2.99751239,-1,-0.914258477088241
3.03296597e+03,2.59988723e+01,-1.30571383e-06,3.72191028,2.48467476,-1.34509852,6.38455373e-01,5.25064652e-05,6.34218102,-2.96937729,-1,-0.9128951885979524
3.07565147e+03,2.59988167e+01,-1.30030844e-06,3.73128877,2.46973886,-1.34509851,6.38455373e-01,5.25064652e-05,6.35280160,-2.94259590,-1,-0.9115729183492179
3.11714158e+03,2.59987631e+01,-1.28234412e-06,3.74086138,2.45331808,-1.34509851,6.38455373e-01,5.25064652e-05,6.36295801,-2.91713558,-1,-0.910287677738947
3.15765210e+03,2.59987117e+01,-1.25285226e-06,3.75057568,2.43554195,-1.34509851,6.38455373e-01,5.25064652e-05,6.37268007,-2.89289856,-1,-0.9090327819228792
3.19746235e+03,2.59986627e+01,-1.21330269e-06,3.76038251,2.41654677,-1.34509852,6.38455374e-01,5.25064651e-05,6.38201176,-2.86975243,-1,-0.9077995783954593
3.23690786e+03,2.59986158e+01,-1.16531082e-06,3.77023662,2.39646875,-1.34509853,6.38455375e-01,5.25064651e-05,6.39100371,-2.84752288,-1,-0.9065776734319668
3.27639050e+03,2.59985710e+01,-1.11072932e-06,3.78009617,2.37544658,-1.34509853,6.38455376e-01,5.25064650e-05,6.39971681,-2.82599974,-1,-0.9053546182911464
3.31635187e+03,2.59985279e+01,-1.05134821e-06,3.78992388,2.35362119,-1.34509857,6.38455383e-01,5.25064649e-05,6.40821096,-2.80495919,-1,-0.9041167335141221
3.35727001e+03,2.59984862e+01,-9.89009294e-07,3.79968691,2.33113598,-1.34509860,6.38455388e-01,5.25064648e-05,6.41654306,-2.78415780,-1,-0.9028492108388448
3.39960948e+03,2.59984458e+01,-9.25680688e-07,3.80935987,2.30814505,-1.34509872,6.38455406e-01,5.25064645e-05,6.42475799,-2.76335848,-1,-0.9015376595737036
3.44403359e+03,2.59984063e+01,-8.62608352e-07,3.81891411,2.28481508,-1.34509868,6.38455401e-01,5.25064644e-05,6.43293301,-2.74222794,-1,-0.9001615323412826
3.49110968e+03,2.59983673e+01,-8.01477326e-07,3.82833125,2.26131670,-1.34509859,6.38455383e-01,5.25064645e-05,6.44112076,-2.72048756,-1,-0.8987032546302626
3.54137613e+03,2.59983287e+01,-7.43141254e-07,3.83759908,2.23782412,-1.34509852,6.38455381e-01,5.25064644e-05,6.44937446,-2.69788913,-1,-0.8971461490242723
3.59527130e+03,2.59982903e+01,-6.88625232e-07,3.84671218,2.21450143,-1.34509851,6.38455382e-01,5.25064642e-05,6.45775037,-2.67424733,-1,-0.8954766364300311
3.65313118e+03,2.59982521e+01,-6.38383901e-07,3.85566890,2.19148783,-1.34509850,6.38455383e-01,5.25064640e-05,6.46630768,-2.64945948,-1,-0.8936843088733819
3.71515879e+03,2.59982142e+01,-5.92593630e-07,3.86447100,2.16888739,-1.34509849,6.38455384e-01,5.25064637e-05,6.47509430,-2.62351590,-1,-0.8917628773965782
3.78141496e+03,2.59981765e+01,-5.51105419e-07,3.87312232,2.14675913,-1.34509849,6.38455386e-01,5.25064635e-05,6.48413522,-2.59647261,-1,-0.8897104576665507
3.85194291e+03,2.59981392e+01,-5.13622703e-07,3.88162372,2.12513103,-1.34509849,6.38455387e-01,5.25064634e-05,6.49343412,-2.56838799,-1,-0.887525710855825
3.92674692e+03,2.59981023e+01,-4.79747988e-07,3.88997587,2.10400726,-1.34509852,6.38455388e-01,5.25064636e-05,6.50297734,-2.53932917,-1,-0.8852085043826894
4.00578099e+03,2.59980658e+01,-4.49073775e-07,3.89818200,2.08337665,-1.34509854,6.38455391e-01,5.25064636e-05,6.51274194,-2.50936613,-1,-0.8827602631907765
4.08908424e+03,2.59980297e+01,-4.21261289e-07,3.90624188,2.06323617,-1.34509854,6.38455393e-01,5.25064634e-05,6.52271473,-2.47853208,-1,-0.8801797754584578
4.17670033e+03,2.59979941e+01,-3.96022907e-07,3.91415628,2.04358867,-1.34509856,6.38455399e-01,5.25064631e-05,6.53288404,-2.44686047,-1,-0.8774656887283636
4.26871628e+03,2.59979589e+01,-3.73158443e-07,3.92192608,2.02445178,-1.34509858,6.38455402e-01,5.25064630e-05,6.54324376,-2.41436841,-1,-0.8746153073788646
4.36521040e+03,2.59979241e+01,-3.52526832e-07,3.92955481,2.00585620,-1.34509861,6.38455411e-01,5.25064624e-05,6.55378884,-2.38106583,-1,-0.8716262055983113
4.46622050e+03,2.59978896e+01,-3.34031075e-07,3.93705043,1.98784132,-1.34509859,6.38455414e-01,5.25064618e-05,6.56451392,-2.34697734,-1,-0.8684972121449912
4.57171653e+03,2.59978554e+01,-3.17608053e-07,3.94442560,1.97045139,-1.34509868,6.38455418e-01,5.25064625e-05,6.57541163,-2.31213119,-1,-0.8652292578788213
4.68162896e+03,2.59978215e+01,-3.03223960e-07,3.95169633,1.95373457,-1.34509873,6.38455424e-01,5.25064623e-05,6.58647107,-2.27657910,-1,-0.8618244966330796
4.79575551e+03,2.59977877e+01,-2.90816745e-07,3.95888214,1.93772335,-1.34509878,6.38455447e-01,5.25064601e-05,6.59768019,-2.24038161,-1,-0.8582891944425066
4.91387707e+03,2.59977541e+01,-2.80328182e-07,3.96600252,1.92244303,-1.34509878,6.38455452e-01,5.25064590e-05,6.60902619,-2.20360777,-1,-0.8546301386853502
5.03564839e+03,2.59977207e+01,-2.71624962e-07,3.97307717,1.90787847,-1.34509891,6.38455438e-01,5.25064612e-05,6.62049294,-2.16634987,-1,-0.8508580241831158
5.16073714e+03,2.59976872e+01,-2.64549690e-07,3.98012290,1.89399267,-1.34509907,6.38455441e-01,5.25064612e-05,6.63206802,-2.12868064,-1,-0.8469831455340107
5.28887097e+03,2.59976538e+01,-2.58922558e-07,3.98715307,1.88072865,-1.34509940,6.38455448e-01,5.25064608e-05,6.64374102,-2.09067014,-1,-0.8430139393336523
5.41979413e+03,2.59976203e+01,-2.54533775e-07,3.99417783,1.86800744,-1.34509895,6.38455444e-01,5.25064612e-05,6.65550773,-2.05236166,-1,-0.8389583279588693
5.55333951e+03,2.59975866e+01,-2.51191630e-07,4.00120422,1.85575166,-1.34509896,6.38455438e-01,5.25064616e-05,6.66736768,-2.01378436,-1,-0.8348214879820637
5.68942243e+03,2.59975547e+01,-2.22773459e-07,4.00823717,1.84389658,-1.34509900,6.38455444e-01,5.25064612e-05,6.67932341,-1.97495105,-1,-0.8306060425386014
5.82796513e+03,2.59975263e+01,-1.94793855e-07,4.01527991,1.83238535,-1.34509905,6.38455450e-01,5.25064607e-05,6.69137998,-1.93586153,-1,-0.8263144004027627
5.96890467e+03,2.59975011e+01,-1.68592885e-07,4.02233467,1.82117737,-1.34509910,6.38455457e-01,5.25064602e-05,6.70354056,-1.89652019,-1,-0.8219485112691619
6.11219689e+03,2.59974791e+01,-1.44098001e-07,4.02940316,1.81024911,-1.34509916,6.38455465e-01,5.25064596e-05,6.71580777,-1.85693025,-1,-0.8175097430836864
6.25779061e+03,2.59974602e+01,-1.21314451e-07,4.03648695,1.79958903,-1.34509924,6.38455473e-01,5.25064590e-05,6.72818371,-1.81709677,-1,-0.8129996812510132
6.40557978e+03,2.59974442e+01,-1.02071557e-07,4.04358710,1.78918875,-1.34509933,6.38455483e-01,5.25064582e-05,6.74066897,-1.77702971,-1,-0.8084216108857567
6.55547150e+03,2.59974284e+01,-1.08070453e-07,4.05070487,1.77904508,-1.34509944,6.38455494e-01,5.25064573e-05,6.75326117,-1.73675044,-1,-0.8037784097545146
