star_age,star_mass,star_mdot,log_Teff,log_R,log_surf_z,surface_h1,surface_he3,log_center_T,log_center_Rho,phase,x
1.77030015e+03,5.99999960e-01,-1.99146751e-11,3.65145321,9.69336685e-01,-2.84509906,7.47426517e-01,4.16806577e-05,5.71459949,-2.10424256,-1,-1.0
1.86819281e+03,5.99999958e-01,-1.96027225e-11,3.65169965,9.66825690e-01,-2.84509903,7.47426515e-01,4.16806579e-05,5.71695090,-2.09722404,-1,-0.99999850349678
1.97155054e+03,5.99999956e-01,-1.92957171e-11,3.65188128,9.64217899e-01,-2.84509900,7.47426513e-01,4.16806580e-05,5.71939352,-2.08993259,-1,-0.999996923448023
2.08064383e+03,5.99999954e-01,-1.89706458e-11,3.65206752,9.61511471e-01,-2.84509897,7.47426511e-01,4.16806582e-05,5.72192906,-2.08236161,-1,-0.9999952557186983
2.19571445e+03,5.99999952e-01,-1.86407696e-11,3.65225998,9.58705789e-01,-2.84509895,7.47426510e-01,4.16806584e-05,5.72455835,-2.07451007,-1,-0.999993496612823
2.31701148e+03,5.99999950e-01,-1.83032435e-11,3.65245848,9.55800168e-01,-2.84509892,7.47426508e-01,4.16806585e-05,5.72728179,-2.06637753,-1,-0.999991642322665
2.44478561e+03,5.99999947e-01,-1.79589674e-11,3.65265972,9.52794129e-01,-2.84509890,7.47426507e-01,4.16806586e-05,5.73010030,-2.05796117,-1,-0.9999896890158801
2.57928828e+03,5.99999945e-01,-1.76125109e-11,3.65286865,9.49687753e-01,-2.84509888,7.47426506e-01,4.16806588e-05,5.73301332,-2.04926084,-1,-0.9999876328486583
2.72193947e+03,5.99999943e-01,-1.72603464e-11,3.65309117,9.46464557e-01,-2.84509885,7.47426504e-01,4.16806590e-05,5.73603720,-2.04022806,-1,-0.9999854521135024
2.87211175e+03,5.99999940e-01,-1.69013336e-11,3.65330796,9.43138166e-01,-2.84509882,7.47426502e-01,4.16806592e-05,5.73915876,-2.03090374,-1,-0.9999831564020509
3.02997758e+03,5.99999937e-01,-1.65403425e-11,3.65353032,9.39710617e-01,-2.84509879,7.47426501e-01,4.16806594e-05,5.74237642,-2.02129231,-1,-0.9999807430778761
3.19749003e+03,5.99999935e-01,-1.61776907e-11,3.65381168,9.36159437e-01,-2.84509876,7.47426499e-01,4.16806596e-05,5.74571111,-2.01132976,-1,-0.9999781822840351
3.37319577e+03,5.99999932e-01,-1.58126216e-11,3.65405637,9.32509970e-01,-2.84509873,7.47426497e-01,4.16806598e-05,5.74913950,-2.00108571,-1,-0.9999754962378528
3.55941997e+03,5.99999929e-01,-1.54437642e-11,3.65431647,9.28739468e-01,-2.84509870,7.47426495e-01,4.16806600e-05,5.75268293,-1.99049822,-1,-0.9999726493940246
3.75494646e+03,5.99999926e-01,-1.50732868e-11,3.65457786,9.24866821e-01,-2.84509868,7.47426493e-01,4.16806603e-05,5.75632389,-1.97961842,-1,-0.9999696603443669
3.96191258e+03,5.99999923e-01,-1.46985278e-11,3.65483359,9.20875128e-01,-2.84509865,7.47426492e-01,4.16806606e-05,5.76007839,-1.96839724,-1,-0.9999664964149669
4.17984111e+03,5.99999920e-01,-1.43230180e-11,3.65509273,9.16775632e-01,-2.84509862,7.47426490e-01,4.16806609e-05,5.76393578,-1.95686878,-1,-0.9999631649011755
4.40928363e+03,5.99999917e-01,-1.39443194e-11,3.65535385,9.12568006e-01,-2.84509860,7.47426489e-01,4.16806612e-05,5.76789677,-1.94502859,-1,-0.999959657370887
4.65185605e+03,5.99999913e-01,-1.35673845e-11,3.65569957,9.08240866e-01,-2.84509858,7.47426488e-01,4.16806616e-05,5.77197148,-1.93284919,-1,-0.9999559491213859
4.90759305e+03,5.99999910e-01,-1.32018193e-11,3.65600133,9.03801800e-01,-2.84509857,7.47426487e-01,4.16806620e-05,5.77615310,-1.92034880,-1,-0.9999520396225127
5.17711643e+03,5.99999906e-01,-1.28296404e-11,3.65629127,8.99253726e-01,-2.84509855,7.47426486e-01,4.16806624e-05,5.78043937,-1.90753410,-1,-0.9999479193686956
5.46120744e+03,5.99999903e-01,-1.24562418e-11,3.65658123,8.94596547e-01,-2.84509854,7.47426485e-01,4.16806630e-05,5.78482964,-1.89440636,-1,-0.9999435764168213
5.76074871e+03,5.99999899e-01,-1.20863110e-11,3.65687196,8.89830762e-01,-2.84509853,7.47426485e-01,4.16806638e-05,5.78932400,-1.88096602,-1,-0.9999389972739615
6.07656971e+03,5.99999896e-01,-1.17187473e-11,3.65716761,8.84957463e-01,-2.84509852,7.47426484e-01,4.16806649e-05,5.79392142,-1.86721350,-1,-0.9999341692598547
6.40957351e+03,5.99999892e-01,-1.13540852e-11,3.65747784,8.79976273e-01,-2.84509851,7.47426483e-01,4.16806665e-05,5.79864788,-1.85310849,-1,-0.9999290785691025
6.76062963e+03,5.99999888e-01,-1.09923496e-11,3.65777607,8.74891722e-01,-2.84509850,7.47426483e-01,4.16806685e-05,5.80342438,-1.83878695,-1,-0.9999237119091919
7.13068232e+03,5.99999884e-01,-1.06357221e-11,3.65807735,8.69704646e-01,-2.84509849,7.47426482e-01,4.16806712e-05,5.80829906,-1.82416864,-1,-0.9999180548451981
7.52067321e+03,5.99999880e-01,-1.02821400e-11,3.65838719,8.64416363e-01,-2.84509849,7.47426482e-01,4.16806738e-05,5.81327857,-1.80924840,-1,-0.999912092982249
7.93164364e+03,5.99999876e-01,-9.93638670e-12,3.65871757,8.59027387e-01,-2.84509848,7.47426482e-01,4.16806787e-05,5.81836222,-1.79402418,-1,-0.9999058104011872
8.36559985e+03,5.99999872e-01,-9.59460782e-12,3.65903471,8.53538540e-01,-2.84509848,7.47426482e-01,4.16806825e-05,5.82355563,-1.77848128,-1,-0.9998991764322502
8.82282738e+03,5.99999867e-01,-9.26207715e-12,3.65939159,8.47951332e-01,-2.84509848,7.47426482e-01,4.16806903e-05,5.82884205,-1.76265606,-1,-0.9998921867103354
9.30415136e+03,5.99999863e-01,-8.93243960e-12,3.65970803,8.42273904e-01,-2.84509848,7.47426482e-01,4.16806976e-05,5.83421960,-1.74655828,-1,-0.9998848286215276
9.81215236e+03,5.99999858e-01,-8.60872253e-12,3.66002632,8.36502613e-01,-2.84509848,7.47426482e-01,4.16807103e-05,5.83968657,-1.73019355,-1,-0.9998770627161753
1.03472491e+04,5.99999854e-01,-8.29091490e-12,3.66032895,8.30644254e-01,-2.84509848,7.47426482e-01,4.16807243e-05,5.84523997,-1.71357076,-1,-0.9998688825932283
1.09112088e+04,5.99999849e-01,-7.97990654e-12,3.66067808,8.24696880e-01,-2.84509847,7.47426481e-01,4.16807622e-05,5.85088067,-1.69668655,-1,-0.9998602612368673
1.15059899e+04,5.99999845e-01,-7.67798576e-12,3.66101352,8.18662621e-01,-2.84509847,7.47426481e-01,4.16807795e-05,5.85660694,-1.67954059,-1,-0.9998511687080575
1.21323448e+04,5.99999840e-01,-7.38363411e-12,3.66132876,8.12548418e-01,-2.84509847,7.47426481e-01,4.16808208e-05,5.86241228,-1.66216043,-1,-0.9998415935047205
1.27926152e+04,5.99999835e-01,-7.09452140e-12,3.66163366,8.06355894e-01,-2.84509847,7.47426481e-01,4.16808797e-05,5.86829495,-1.64454426,-1,-0.999831499828855
1.34886842e+04,5.99999831e-01,-6.81424461e-12,3.66195791,8.00084787e-01,-2.84509847,7.47426481e-01,4.16809634e-05,5.87425526,-1.62669368,-1,-0.9998208588931625
1.42214837e+04,5.99999826e-01,-6.54154542e-12,3.66228623,7.93740459e-01,-2.84509847,7.47426481e-01,4.16810506e-05,5.88028809,-1.60862114,-1,-0.9998096564515153
1.49948174e+04,5.99999821e-01,-6.27557771e-12,3.66258043,7.87325122e-01,-2.84509847,7.47426481e-01,4.16811998e-05,5.88639196,-1.59033667,-1,-0.9997978343560471
1.58098645e+04,5.99999816e-01,-6.02006229e-12,3.66297251,7.80832040e-01,-2.84509847,7.47426481e-01,4.16813837e-05,5.89257294,-1.57182103,-1,-0.9997853745801091
1.66676630e+04,5.99999811e-01,-5.77063395e-12,3.66326978,7.74277682e-01,-2.84509847,7.47426481e-01,4.16816466e-05,5.89881578,-1.55311970,-1,-0.999772261255603
1.75719565e+04,5.99999806e-01,-5.52815210e-12,3.66356124,7.67660953e-01,-2.84509847,7.47426481e-01,4.16820329e-05,5.90512120,-1.53423002,-1,-0.9997584371534227
1.85259313e+04,5.99999801e-01,-5.29585888e-12,3.66392903,7.60974762e-01,-2.84509847,7.47426481e-01,4.16825174e-05,5.91149537,-1.51513264,-1,-0.9997438535640099
1.95303646e+04,5.99999795e-01,-5.06927687e-12,3.66423188,7.54235126e-01,-2.84509847,7.47426481e-01,4.16832634e-05,5.91792380,-1.49587009,-1,-0.9997284986061643
2.05884617e+04,5.99999790e-01,-4.85001644e-12,3.66451895,7.47442578e-01,-2.84509847,7.47426480e-01,4.16842621e-05,5.92440615,-1.47643762,-1,-0.9997123232798713
2.17032414e+04,5.99999785e-01,-4.63819876e-12,3.66479913,7.40600044e-01,-2.84509847,7.47426480e-01,4.16855922e-05,5.93094054,-1.45685064,-1,-0.9996952814361763
2.28780029e+04,5.99999780e-01,-4.43401172e-12,3.66508809,7.33707707e-01,-2.84509847,7.47426479e-01,4.16873936e-05,5.93752629,-1.43711254,-1,-0.9996773226395981
2.41163445e+04,5.99999774e-01,-4.23823579e-12,3.66540617,7.26765123e-01,-2.84509847,7.47426479e-01,4.16895686e-05,5.94416365,-1.41722142,-1,-0.999658391882258
2.54210292e+04,5.99999769e-01,-4.04918474e-12,3.66567061,7.19785334e-01,-2.84509847,7.47426477e-01,4.16930220e-05,5.95083988,-1.39721016,-1,-0.9996384469256638
2.67958997e+04,5.99999764e-01,-3.86659470e-12,3.66594134,7.12767857e-01,-2.84509847,7.47426476e-01,4.16974213e-05,5.95755542,-1.37707785,-1,-0.9996174290257489
2.82453878e+04,5.99999758e-01,-3.69393646e-12,3.66625809,7.05711910e-01,-2.84509847,7.47426474e-01,4.17028180e-05,5.96431127,-1.35681894,-1,-0.999595270432766
2.97718502e+04,5.99999753e-01,-3.52595137e-12,3.66650588,6.98634980e-01,-2.84509847,7.47426471e-01,4.17108379e-05,5.97109085,-1.33648966,-1,-0.9995719351194058
3.13812181e+04,5.99999747e-01,-3.36576343e-12,3.66680040,6.91530574e-01,-2.84509847,7.47426468e-01,4.17215654e-05,5.97789986,-1.31607185,-1,-0.9995473324143156
3.30762022e+04,5.99999742e-01,-3.21157571e-12,3.66703116,6.84417660e-01,-2.84509847,7.47426463e-01,4.17360286e-05,5.98472018,-1.29562248,-1,-0.9995214208785228
3.48622885e+04,5.99999736e-01,-3.06348198e-12,3.66724574,6.77301723e-01,-2.84509847,7.47426456e-01,4.17557981e-05,5.99154680,-1.27514967,-1,-0.9994941166465294
3.67456828e+04,5.99999731e-01,-2.92330765e-12,3.66750202,6.70187022e-01,-2.84509847,7.47426448e-01,4.17796497e-05,5.99837606,-1.25466922,-1,-0.9994653248491217
3.87299860e+04,5.99999725e-01,-2.78888305e-12,3.66770695,6.63095152e-01,-2.84509847,7.47426436e-01,4.18165226e-05,6.00518739,-1.23424172,-1,-0.9994349904386746
4.08232887e+04,5.99999719e-01,-2.66195608e-12,3.66795795,6.56033912e-01,-2.84509847,7.47426420e-01,4.18638370e-05,6.01197191,-1.21389235,-1,-0.9994029897326878
4.30291012e+04,5.99999714e-01,-2.54072226e-12,3.66814352,6.49033575e-01,-2.84509847,7.47426399e-01,4.19266315e-05,6.01870115,-1.19370759,-1,-0.9993692690685554
4.53550000e+04,5.99999708e-01,-2.42572835e-12,3.66831380,6.42116588e-01,-2.84509847,7.47426372e-01,4.20095524e-05,6.02535283,-1.17375521,-1,-0.9993337126229186
4.78101508e+04,5.99999702e-01,-2.31896959e-12,3.66854588,6.35304309e-01,-2.84509847,7.47426339e-01,4.21085032e-05,6.03190710,-1.15409170,-1,-0.9992961802780247
5.03998250e+04,5.99999696e-01,-2.21791024e-12,3.66870574,6.28643921e-01,-2.84509847,7.47426288e-01,4.22601203e-05,6.03831867,-1.13486100,-1,-0.9992565914490055
5.31337162e+04,5.99999690e-01,-2.12375783e-12,3.66886375,6.22172283e-01,-2.84509847,7.47426227e-01,4.24450461e-05,6.04455167,-1.11616091,-1,-0.999214797948003
5.60196378e+04,5.99999684e-01,-2.03645812e-12,3.66899212,6.15937672e-01,-2.84509847,7.47426147e-01,4.26841309e-05,6.05055904,-1.09813795,-1,-0.9991706803301246
5.90661442e+04,5.99999678e-01,-1.95616902e-12,3.66910589,6.09984949e-01,-2.84509847,7.47426046e-01,4.29876363e-05,6.05629646,-1.08092497,-1,-0.9991241078226736
6.22848634e+04,5.99999672e-01,-1.88262519e-12,3.66919778,6.04362801e-01,-2.84509847,7.47425919e-01,4.33685798e-05,6.06171702,-1.06466125,-1,-0.9990749026662606
6.56895888e+04,5.99999666e-01,-1.81750437e-12,3.66934584,5.99104371e-01,-2.84509847,7.47425764e-01,4.38319142e-05,6.06678827,-1.04944589,-1,-0.999022853998626
6.92860507e+04,5.99999660e-01,-1.75858077e-12,3.66942317,5.94245376e-01,-2.84509847,7.47425576e-01,4.43967892e-05,6.07147602,-1.03537945,-1,-0.9989678742196124
7.30858635e+04,5.99999653e-01,-1.70589446e-12,3.66951559,5.89784031e-01,-2.84509847,7.47425352e-01,4.50686617e-05,6.07578161,-1.02245941,-1,-0.9989097857777366
7.71019715e+04,5.99999646e-01,-1.65959172e-12,3.66958518,5.85710262e-01,-2.84509847,7.47425091e-01,4.58526370e-05,6.07971460,-1.01065573,-1,-0.9988483907910876
8.13467806e+04,5.99999639e-01,-1.61805851e-12,3.66963783,5.81987388e-01,-2.84509847,7.47424792e-01,4.67475745e-05,6.08330960,-9.99867495e-01,-1,-0.9987834996083746
8.58275956e+04,5.99999632e-01,-1.58070544e-12,3.66968825,5.78547805e-01,-2.84509847,7.47424459e-01,4.77474902e-05,6.08663190,-9.89898234e-01,-1,-0.9987150005597679
9.05518376e+04,5.99999625e-01,-1.54661730e-12,3.66973657,5.75316916e-01,-2.84509847,7.47424094e-01,4.88437521e-05,6.08975313,-9.80532780e-01,-1,-0.9986427801975374
9.55561842e+04,5.99999617e-01,-1.51481514e-12,3.66977033,5.72219391e-01,-2.84509847,7.47423698e-01,5.00323409e-05,6.09274602,-9.71552397e-01,-1,-0.9985662778244203
1.00816155e+05,5.99999610e-01,-1.48429366e-12,3.66980146,5.69156811e-01,-2.84509847,7.47423273e-01,5.13074227e-05,6.09570529,-9.62671093e-01,-1,-0.9984858676768245
1.06383521e+05,5.99999601e-01,-1.45397937e-12,3.66983063,5.66034584e-01,-2.84509847,7.47422825e-01,5.26495103e-05,6.09872276,-9.53616310e-01,-1,-0.9984007583218867
1.12244366e+05,5.99999593e-01,-1.42295959e-12,3.66985684,5.62768491e-01,-2.84509847,7.47422383e-01,5.39766928e-05,6.10187979,-9.44141382e-01,-1,-0.9983111624991331
1.18419435e+05,5.99999585e-01,-1.39035675e-12,3.66992570,5.59258125e-01,-2.84509847,7.47421958e-01,5.52496783e-05,6.10527336,-9.33956410e-01,-1,-0.9982167630759073
1.24932885e+05,5.99999576e-01,-1.35546776e-12,3.66995645,5.55395553e-01,-2.84509847,7.47421450e-01,5.67738638e-05,6.10900845,-9.22746167e-01,-1,-0.9981171907596774
1.31785415e+05,5.99999567e-01,-1.31679713e-12,3.66998656,5.51079682e-01,-2.84509847,7.47420992e-01,5.81478753e-05,6.11318287,-9.10216197e-01,-1,-0.9980124348647008
1.38989770e+05,5.99999557e-01,-1.27397872e-12,3.67006070,5.46187224e-01,-2.84509847,7.47420557e-01,5.94543500e-05,6.11791622,-8.96008598e-01,-1,-0.9979023005558026
1.46558392e+05,5.99999548e-01,-1.22623867e-12,3.67008754,5.40561929e-01,-2.84509847,7.47420142e-01,6.06994297e-05,6.12336028,-8.79667219e-01,-1,-0.9977865976298251
1.54487155e+05,5.99999539e-01,-1.17268007e-12,3.67010664,5.34067416e-01,-2.84509847,7.47419777e-01,6.17928144e-05,6.12964814,-8.60793622e-01,-1,-0.997665389161694
1.62776245e+05,5.99999529e-01,-1.11318698e-12,3.67011378,5.26549910e-01,-2.84509847,7.47419476e-01,6.26981913e-05,6.13692888,-8.38937074e-01,-1,-0.9975386723079931
1.71419928e+05,5.99999520e-01,-1.04882267e-12,3.67016156,5.17931769e-01,-2.84509847,7.47419251e-01,6.33712236e-05,6.14527913,-8.13865894e-01,-1,-0.997406534725442
1.80413511e+05,5.99999511e-01,-9.80389848e-13,3.67015577,5.08257264e-01,-2.84509847,7.47419107e-01,6.38042150e-05,6.15465689,-7.85708532e-01,-1,-0.9972690481568008
1.89773028e+05,5.99999502e-01,-9.11299530e-13,3.67009426,4.97812263e-01,-2.84509847,7.47419036e-01,6.40167930e-05,6.16478554,-7.55293176e-01,-1,-0.9971259674873425
1.99581170e+05,5.99999493e-01,-8.44957503e-13,3.67007730,4.86988265e-01,-2.84509847,7.47419012e-01,6.40876084e-05,6.17528690,-7.23758981e-01,-1,-0.9969760286044383
2.09877379e+05,5.99999485e-01,-7.83517711e-13,3.66997662,4.76186968e-01,-2.84509847,7.47419008e-01,6.41018952e-05,6.18577215,-6.92273528e-01,-1,-0.9968186285509311
2.20727265e+05,5.99999477e-01,-7.27283110e-13,3.66986492,4.65566947e-01,-2.84509847,7.47419007e-01,6.41033846e-05,6.19608940,-6.61284858e-01,-1,-0.9966527643346016
2.32160716e+05,5.99999469e-01,-6.75933872e-13,3.66969709,4.55167881e-01,-2.84509847,7.47419007e-01,6.41034540e-05,6.20626966,-6.30789914e-01,-1,-0.9964779790520599
2.44207924e+05,5.99999461e-01,-6.28879829e-13,3.66950010,4.44979030e-01,-2.84509847,7.47419007e-01,6.41034554e-05,6.21617587,-6.01031009e-01,-1,-0.9962938111526113
2.56920150e+05,5.99999454e-01,-5.85921358e-13,3.66932004,4.34974500e-01,-2.84509847,7.47419007e-01,6.41034555e-05,6.22590605,-5.71797743e-01,-1,-0.9960994769998569
2.70306222e+05,5.99999446e-01,-5.46301127e-13,3.66907810,4.25154502e-01,-2.84509847,7.47419007e-01,6.41034555e-05,6.23546124,-5.43092261e-01,-1,-0.995894841638526
2.84418615e+05,5.99999439e-01,-5.09922230e-13,3.66884838,4.15492246e-01,-2.84509847,7.47419007e-01,6.41034555e-05,6.24486776,-5.14837922e-01,-1,-0.995679102873577
2.99276313e+05,5.99999432e-01,-4.76297534e-13,3.66855602,4.05992917e-01,-2.84509847,7.47419007e-01,6.41034555e-05,6.25411889,-4.87042739e-01,-1,-0.9954519704930866
3.14936306e+05,5.99999424e-01,-4.45197679e-13,3.66824188,3.96641562e-01,-2.84509847,7.47419007e-01,6.41034555e-05,6.26322858,-4.59668117e-01,-1,-0.9952125732803723
3.31448985e+05,5.99999417e-01,-4.16651203e-13,3.66795400,3.87415959e-01,-2.84509847,7.47419007e-01,6.41034555e-05,6.27221971,-4.32648656e-01,-1,-0.9949601408988861
3.48830311e+05,5.99999410e-01,-3.90023108e-13,3.66759945,3.78327826e-01,-2.84509847,7.47419007e-01,6.41034555e-05,6.28108008,-4.06022895e-01,-1,-0.9946944293498656
3.67140454e+05,5.99999404e-01,-3.65362126e-13,3.66722445,3.69361132e-01,-2.84509847,7.47419007e-01,6.41034555e-05,6.28982560,-3.79739952e-01,-1,-0.9944145188033794
3.86445395e+05,5.99999397e-01,-3.42407043e-13,3.66687752,3.60502233e-01,-2.84509847,7.47419007e-01,6.41034555e-05,6.29846909,-3.53759150e-01,-1,-0.9941194005956627
4.06762947e+05,5.99999390e-01,-3.21273618e-13,3.66645640,3.51759352e-01,-2.84509847,7.47419007e-01,6.41034555e-05,6.30700224,-3.28110947e-01,-1,-0.9938088024160863
4.28168021e+05,5.99999383e-01,-3.01428384e-13,3.66600922,3.43122241e-01,-2.84509847,7.47419007e-01,6.41034555e-05,6.31543427,-3.02764588e-01,-1,-0.9934815790863221
4.50714426e+05,5.99999377e-01,-2.82969517e-13,3.66554359,3.34583125e-01,-2.84509847,7.47419007e-01,6.41034555e-05,6.32377313,-2.77699726e-01,-1,-0.9931369080182233
4.74465134e+05,5.99999370e-01,-2.65779222e-13,3.66507163,3.26134782e-01,-2.84509847,7.47419007e-01,6.41034555e-05,6.33202595,-2.52885400e-01,-1,-0.9927738265471656
4.99462871e+05,5.99999364e-01,-2.49693001e-13,3.66455449,3.17779761e-01,-2.84509847,7.47419007e-01,6.41034556e-05,6.34018994,-2.28336450e-01,-1,-0.9923916815128755
5.25803218e+05,5.99999358e-01,-2.34673414e-13,3.66401289,3.09512336e-01,-2.84509847,7.47419007e-01,6.41034556e-05,6.34827075,-2.04037654e-01,-1,-0.9919890117509076
5.53546586e+05,5.99999351e-01,-2.20608537e-13,3.66345622,3.01326341e-01,-2.84509847,7.47419007e-01,6.41034557e-05,6.35627328,-1.79974385e-01,-1,-0.9915648937471186
5.82761642e+05,5.99999345e-01,-2.07552522e-13,3.66289732,2.93213167e-01,-2.84509847,7.47419007e-01,6.41034557e-05,6.36420649,-1.56117346e-01,-1,-0.9911182777763647
6.13539505e+05,5.99999339e-01,-1.95279002e-13,3.66229773,2.85179109e-01,-2.84509847,7.47419007e-01,6.41034558e-05,6.37206376,-1.32485989e-01,-1,-0.9906477708856206
6.45965013e+05,5.99999333e-01,-1.83836348e-13,3.66171484,2.77209792e-01,-2.84509847,7.47419007e-01,6.41034559e-05,6.37985965,-1.09034043e-01,-1,-0.990152076140671
6.80091102e+05,5.99999327e-01,-1.73063124e-13,3.66107642,2.69314357e-01,-2.84509847,7.47419007e-01,6.41034560e-05,6.38758530,-8.57913050e-02,-1,-0.9896303842990819
7.16039854e+05,5.99999321e-01,-1.62970825e-13,3.66041908,2.61485939e-01,-2.84509847,7.47419007e-01,6.41034562e-05,6.39524722,-6.27414556e-02,-1,-0.9890808290707137
7.53883651e+05,5.99999315e-01,-1.53471762e-13,3.65974087,2.53721295e-01,-2.84509847,7.47419007e-01,6.41034564e-05,6.40284836,-3.98751798e-02,-1,-0.9885023039385294
7.93755116e+05,5.99999309e-01,-1.44621102e-13,3.65904093,2.46019463e-01,-2.84509847,7.47419007e-01,6.41034567e-05,6.41038990,-1.71859888e-02,-1,-0.9878927814701709
8.35775257e+05,5.99999303e-01,-1.36343534e-13,3.65838323,2.38364922e-01,-2.84509847,7.47419007e-01,6.41034571e-05,6.41788665,5.36911113e-03,-1,-0.987250411793935
8.79993534e+05,5.99999298e-01,-1.28521187e-13,3.65765032,2.30775136e-01,-2.84509847,7.47419007e-01,6.41034575e-05,6.42532031,2.77372243e-02,-1,-0.9865744388056437
9.26558351e+05,5.99999292e-01,-1.21166474e-13,3.65689963,2.23240673e-01,-2.84509847,7.47419007e-01,6.41034581e-05,6.43270074,4.99492184e-02,-1,-0.9858625938258692
9.75578031e+05,5.99999286e-01,-1.14256328e-13,3.65613086,2.15759807e-01,-2.84509847,7.47419007e-01,6.41034588e-05,6.44002959,7.20090476e-02,-1,-0.9851132209008525
1.02723829e+06,5.99999280e-01,-1.07763749e-13,3.65534585,2.08330915e-01,-2.84509847,7.47419007e-01,6.41034598e-05,6.44730918,9.39255067e-02,-1,-0.9843234809557131
1.08160903e+06,5.99999275e-01,-1.01658469e-13,3.65454515,2.00951134e-01,-2.84509847,7.47419007e-01,6.41034609e-05,6.45454125,1.15701271e-01,-1,-0.9834923053856335
