star_age,star_mass,star_mdot,log_Teff,log_R,log_surf_z,surface_h1,surface_he3,log_center_T,log_center_Rho,phase,x
3.11952344e+03,3.99999973e-01,-7.46299598e-12,3.63028201,7.96458578e-01,-2.84509847,7.47426481e-01,4.16806620e-05,5.71466305,-1.75920785,-1,-1.0
3.29506236e+03,3.99999972e-01,-7.34123071e-12,3.63038367,7.93941113e-01,-2.84509847,7.47426481e-01,4.16806621e-05,5.71700570,-1.75221793,-1,-0.9999987931750859
3.48057646e+03,3.99999970e-01,-7.21683083e-12,3.63048796,7.91325715e-01,-2.84509847,7.47426481e-01,4.16806623e-05,5.71944049,-1.74495254,-1,-0.9999975177711025
3.67654955e+03,3.99999969e-01,-7.08983683e-12,3.63059484,7.88611227e-01,-2.84509847,7.47426481e-01,4.16806624e-05,5.72196823,-1.73740855,-1,-0.9999961704618704
3.88345903e+03,3.99999967e-01,-6.96038070e-12,3.63070459,7.85796887e-01,-2.84509847,7.47426481e-01,4.16806627e-05,5.72458945,-1.72958654,-1,-0.9999947479652785
4.10177765e+03,3.99999966e-01,-6.82872342e-12,3.63082412,7.82881923e-01,-2.84509847,7.47426481e-01,4.16806629e-05,5.72730536,-1.72148074,-1,-0.9999932470311846
4.33195720e+03,3.99999964e-01,-6.69546973e-12,3.63094377,7.79866229e-01,-2.84509847,7.47426481e-01,4.16806632e-05,5.73011574,-1.71309174,-1,-0.9999916645535457
4.57484909e+03,3.99999963e-01,-6.55971039e-12,3.63106116,7.76746687e-01,-2.84509847,7.47426481e-01,4.16806635e-05,5.73302385,-1.70440966,-1,-0.999989994678943
4.83181870e+03,3.99999961e-01,-6.42203366e-12,3.63117994,7.73517247e-01,-2.84509847,7.47426481e-01,4.16806640e-05,5.73603520,-1.69541817,-1,-0.9999882280204292
5.10307275e+03,3.99999959e-01,-6.28244831e-12,3.63129822,7.70181291e-01,-2.84509847,7.47426481e-01,4.16806645e-05,5.73914666,-1.68612663,-1,-0.9999863631568103
5.38911005e+03,3.99999958e-01,-6.14145806e-12,3.63141742,7.66739474e-01,-2.84509847,7.47426481e-01,4.16806651e-05,5.74235776,-1.67653581,-1,-0.9999843966587824
5.69143433e+03,3.99999956e-01,-5.99946299e-12,3.63155454,7.63186205e-01,-2.84509847,7.47426481e-01,4.16806658e-05,5.74567419,-1.66662990,-1,-0.9999823181882458
6.01047024e+03,3.99999954e-01,-5.85725855e-12,3.63168368,7.59523969e-01,-2.84509847,7.47426481e-01,4.16806667e-05,5.74909345,-1.65641427,-1,-0.9999801248257443
6.34708712e+03,3.99999952e-01,-5.71346037e-12,3.63182365,7.55752523e-01,-2.84509847,7.47426481e-01,4.16806677e-05,5.75261648,-1.64588969,-1,-0.9999778105945908
6.70266836e+03,3.99999950e-01,-5.56932858e-12,3.63195053,7.51869326e-01,-2.84509847,7.47426481e-01,4.16806690e-05,5.75624545,-1.63504677,-1,-0.9999753659840199
7.07788958e+03,3.99999948e-01,-5.42419106e-12,3.63207753,7.47876817e-01,-2.84509847,7.47426481e-01,4.16806706e-05,5.75997845,-1.62389392,-1,-0.999972786349164
7.47347298e+03,3.99999946e-01,-5.27852164e-12,3.63220487,7.43776251e-01,-2.84509847,7.47426481e-01,4.16806726e-05,5.76381435,-1.61243331,-1,-0.9999700667249192
7.89198357e+03,3.99999944e-01,-5.13331849e-12,3.63233919,7.39560757e-01,-2.84509847,7.47426481e-01,4.16806750e-05,5.76775982,-1.60064230,-1,-0.9999671894769172
8.33329557e+03,3.99999942e-01,-4.98834018e-12,3.63246274,7.35238417e-01,-2.84509847,7.47426481e-01,4.16806780e-05,5.77180701,-1.58854924,-1,-0.9999641554698918
8.79873984e+03,3.99999939e-01,-4.84368126e-12,3.63260524,7.30808179e-01,-2.84509847,7.47426481e-01,4.16806818e-05,5.77595676,-1.57614652,-1,-0.9999609555542197
9.28975177e+03,3.99999937e-01,-4.70007840e-12,3.63272978,7.26271355e-01,-2.84509847,7.47426481e-01,4.16806865e-05,5.78020792,-1.56343962,-1,-0.9999575798616368
9.80812812e+03,3.99999935e-01,-4.55687173e-12,3.63285308,7.21630245e-01,-2.84509847,7.47426481e-01,4.16806923e-05,5.78444455,-1.55062703,-1,-0.9999540160394709
1.03555088e+04,3.99999932e-01,-4.41484766e-12,3.63297803,7.16881647e-01,-2.84509847,7.47426481e-01,4.16806998e-05,5.78888115,-1.53735046,-1,-0.9999502528133889
1.09330322e+04,3.99999930e-01,-4.27393210e-12,3.63309346,7.12028041e-01,-2.84509847,7.47426481e-01,4.16807091e-05,5.79343061,-1.52374119,-1,-0.9999462823569932
1.15423723e+04,3.99999927e-01,-4.13441902e-12,3.63320595,7.07072609e-01,-2.84509847,7.47426481e-01,4.16807210e-05,5.79807209,-1.50984950,-1,-0.9999420931617203
1.21853792e+04,3.99999925e-01,-3.99672746e-12,3.63334480,7.02014826e-01,-2.84509847,7.47426481e-01,4.16807361e-05,5.80281625,-1.49565414,-1,-0.9999376725081873
1.28636234e+04,3.99999922e-01,-3.86149459e-12,3.63346200,6.96858708e-01,-2.84509847,7.47426481e-01,4.16807553e-05,5.80766122,-1.48115870,-1,-0.9999330095992528
1.35795879e+04,3.99999919e-01,-3.72774684e-12,3.63356744,6.91604471e-01,-2.84509847,7.47426481e-01,4.16807800e-05,5.81259975,-1.46637998,-1,-0.9999280873643648
1.43347495e+04,3.99999916e-01,-3.59591144e-12,3.63367145,6.86256657e-01,-2.84509847,7.47426481e-01,4.16808116e-05,5.81763137,-1.45132497,-1,-0.9999228956505667
1.51315551e+04,3.99999914e-01,-3.46643603e-12,3.63378106,6.80815406e-01,-2.84509847,7.47426481e-01,4.16808523e-05,5.82275199,-1.43600116,-1,-0.9999174176354928
1.59719810e+04,3.99999911e-01,-3.33977996e-12,3.63388264,6.75284121e-01,-2.84509847,7.47426481e-01,4.16809048e-05,5.82796104,-1.42041240,-1,-0.9999116397321389
1.68581849e+04,3.99999908e-01,-3.21535433e-12,3.63397422,6.69665416e-01,-2.84509847,7.47426481e-01,4.16809726e-05,5.83325407,-1.40457204,-1,-0.999905547106381
1.77939583e+04,3.99999905e-01,-3.09326742e-12,3.63405543,6.63960053e-01,-2.84509847,7.47426481e-01,4.16810610e-05,5.83863143,-1.38847774,-1,-0.9998991136917679
1.87805424e+04,3.99999902e-01,-2.97464738e-12,3.63415771,6.58170760e-01,-2.84509847,7.47426481e-01,4.16811756e-05,5.84409049,-1.37213388,-1,-0.999892330955086
1.98211683e+04,3.99999899e-01,-2.85861892e-12,3.63422927,6.52301810e-01,-2.84509847,7.47426481e-01,4.16813250e-05,5.84962838,-1.35555483,-1,-0.9998851766826181
2.09192517e+04,3.99999896e-01,-2.74533579e-12,3.63429964,6.46354509e-01,-2.84509847,7.47426481e-01,4.16815206e-05,5.85524368,-1.33874300,-1,-0.9998776273915269
2.20767152e+04,3.99999893e-01,-2.63470805e-12,3.63435409,6.40334101e-01,-2.84509847,7.47426481e-01,4.16817760e-05,5.86093143,-1.32171518,-1,-0.999869669863994
2.32984109e+04,3.99999890e-01,-2.52727990e-12,3.63441571,6.34240282e-01,-2.84509847,7.47426481e-01,4.16821117e-05,5.86669148,-1.30446889,-1,-0.9998612707419745
2.45866130e+04,3.99999887e-01,-2.42328660e-12,3.63446256,6.28078251e-01,-2.84509847,7.47426481e-01,4.16825527e-05,5.87251860,-1.28701629,-1,-0.9998524143904103
2.59450566e+04,3.99999884e-01,-2.32211844e-12,3.63450324,6.21850352e-01,-2.84509847,7.47426481e-01,4.16831324e-05,5.87841153,-1.26936132,-1,-0.9998430751305987
2.73785731e+04,3.99999880e-01,-2.22394507e-12,3.63453774,6.15558408e-01,-2.84509847,7.47426480e-01,4.16838988e-05,5.88436860,-1.25151142,-1,-0.9998332197468068
2.88892838e+04,3.99999877e-01,-2.12888832e-12,3.63455467,6.09208116e-01,-2.84509847,7.47426480e-01,4.16849071e-05,5.89038506,-1.23348279,-1,-0.9998228336551594
3.04835870e+04,3.99999874e-01,-2.03678941e-12,3.63455932,6.02801222e-01,-2.84509847,7.47426480e-01,4.16862443e-05,5.89645875,-1.21528308,-1,-0.9998118728675321
3.21646260e+04,3.99999870e-01,-1.94788730e-12,3.63456164,5.96341146e-01,-2.84509847,7.47426479e-01,4.16880118e-05,5.90258573,-1.19692436,-1,-0.9998003157738299
3.39375191e+04,3.99999867e-01,-1.86220059e-12,3.63456122,5.89830120e-01,-2.84509847,7.47426478e-01,4.16903535e-05,5.90876384,-1.17840842,-1,-0.9997881271858907
3.58071813e+04,3.99999864e-01,-1.77928943e-12,3.63453252,5.83274894e-01,-2.84509847,7.47426477e-01,4.16934596e-05,5.91498663,-1.15975799,-1,-0.999775273313234
3.77793173e+04,3.99999860e-01,-1.69949972e-12,3.63449222,5.76679260e-01,-2.84509847,7.47426476e-01,4.16975861e-05,5.92125142,-1.14097671,-1,-0.999761714936215
3.98587122e+04,3.99999857e-01,-1.62263388e-12,3.63444653,5.70047326e-01,-2.84509847,7.47426474e-01,4.17030571e-05,5.92755481,-1.12207755,-1,-0.999747419157412
4.20516907e+04,3.99999853e-01,-1.54887132e-12,3.63440664,5.63382515e-01,-2.84509847,7.47426472e-01,4.17103145e-05,5.93389340,-1.10307180,-1,-0.9997323424946984
4.43643500e+04,3.99999850e-01,-1.47818068e-12,3.63434011,5.56693232e-01,-2.84509847,7.47426468e-01,4.17199545e-05,5.94025935,-1.08398441,-1,-0.9997164430300034
4.68039774e+04,3.99999847e-01,-1.41019229e-12,3.63425361,5.49987037e-01,-2.84509847,7.47426464e-01,4.17327755e-05,5.94664447,-1.06484101,-1,-0.9996996706633537
4.93773948e+04,3.99999843e-01,-1.34500667e-12,3.63415063,5.43272556e-01,-2.84509847,7.47426458e-01,4.17498091e-05,5.95304051,-1.04566354,-1,-0.9996819784943876
5.20916907e+04,3.99999839e-01,-1.28274835e-12,3.63404052,5.36559371e-01,-2.84509847,7.47426451e-01,4.17723910e-05,5.95943843,-1.02647602,-1,-0.9996633177898757
5.49543800e+04,3.99999836e-01,-1.22324680e-12,3.63390993,5.29859915e-01,-2.84509847,7.47426441e-01,4.18022822e-05,5.96582679,-1.00731138,-1,-0.9996436368851017
5.79749935e+04,3.99999832e-01,-1.16660810e-12,3.63378891,5.23186122e-01,-2.84509847,7.47426428e-01,4.18417869e-05,5.97219438,-9.88207341e-01,-1,-0.9996228702560956
6.11611302e+04,3.99999829e-01,-1.11295972e-12,3.63363684,5.16559464e-01,-2.84509847,7.47426410e-01,4.18938368e-05,5.97852001,-9.69228088e-01,-1,-0.999600965659956
6.45232582e+04,3.99999825e-01,-1.06198993e-12,3.63347852,5.10000738e-01,-2.84509847,7.47426388e-01,4.19621800e-05,5.98478335,-9.50437030e-01,-1,-0.999577851128803
6.80734959e+04,3.99999822e-01,-1.01396848e-12,3.63330204,5.03538315e-01,-2.84509847,7.47426358e-01,4.20517920e-05,5.99095686,-9.31913580e-01,-1,-0.999553443348993
7.18238757e+04,3.99999818e-01,-9.68869503e-13,3.63312613,4.97202607e-01,-2.84509847,7.47426319e-01,4.21686935e-05,5.99701169,-9.13742723e-01,-1,-0.9995276595981296
7.57836066e+04,3.99999814e-01,-9.26708359e-13,3.63293288,4.91029885e-01,-2.84509847,7.47426268e-01,4.23196835e-05,6.00291387,-8.96027390e-01,-1,-0.9995004365646087
7.99651932e+04,3.99999810e-01,-8.87537932e-13,3.63274993,4.85056781e-01,-2.84509847,7.47426204e-01,4.25126877e-05,6.00862814,-8.78876050e-01,-1,-0.9994716882796729
8.43890661e+04,3.99999807e-01,-8.51557142e-13,3.63255508,4.79335749e-01,-2.84509847,7.47426122e-01,4.27586142e-05,6.01410427,-8.62437764e-01,-1,-0.9994412742835479
8.90638704e+04,3.99999803e-01,-8.18587612e-13,3.63236445,4.73903549e-01,-2.84509847,7.47426020e-01,4.30662988e-05,6.01930617,-8.46822659e-01,-1,-0.9994091351414253
9.40110395e+04,3.99999799e-01,-7.88722962e-13,3.63217689,4.68807075e-01,-2.84509847,7.47425893e-01,4.34473296e-05,6.02418852,-8.32167464e-01,-1,-0.9993751234993102
9.92403265e+04,3.99999795e-01,-7.61831554e-13,3.63200930,4.64068539e-01,-2.84509847,7.47425739e-01,4.39093420e-05,6.02872950,-8.18536596e-01,-1,-0.999339172304927
1.04774200e+05,3.99999791e-01,-7.37986331e-13,3.63183770,4.59716079e-01,-2.84509847,7.47425554e-01,4.44620744e-05,6.03290182,-8.06011171e-01,-1,-0.9993011270873111
1.10628428e+05,3.99999786e-01,-7.16776076e-13,3.63167550,4.55746054e-01,-2.84509847,7.47425338e-01,4.51101133e-05,6.03670847,-7.94584023e-01,-1,-0.9992608794419261
1.16822485e+05,3.99999782e-01,-6.98010393e-13,3.63153295,4.52137635e-01,-2.84509847,7.47425090e-01,4.58558720e-05,6.04016927,-7.84194997e-01,-1,-0.9992182954821572
1.23375424e+05,3.99999778e-01,-6.81346574e-13,3.63139131,4.48849973e-01,-2.84509847,7.47424809e-01,4.66982757e-05,6.04332330,-7.74725520e-01,-1,-0.9991732442191895
1.30287667e+05,3.99999773e-01,-6.66359287e-13,3.63125883,4.45813811e-01,-2.84509847,7.47424499e-01,4.76285751e-05,6.04623640,-7.65979136e-01,-1,-0.9991257227517854
1.37615840e+05,3.99999768e-01,-6.52797311e-13,3.63113251,4.42978994e-01,-2.84509847,7.47424159e-01,4.86481839e-05,6.04895703,-7.57810704e-01,-1,-0.9990753417778596
1.45332604e+05,3.99999763e-01,-6.40078082e-13,3.63100893,4.40251883e-01,-2.84509847,7.47423795e-01,4.97393110e-05,6.05157465,-7.49950382e-01,-1,-0.9990222892522336
1.53494638e+05,3.99999758e-01,-6.27888608e-13,3.63088483,4.37562162e-01,-2.84509847,7.47423409e-01,5.08989317e-05,6.05415685,-7.42196304e-01,-1,-0.9989661755084485
1.62131136e+05,3.99999753e-01,-6.15825474e-13,3.63075870,4.34826762e-01,-2.84509847,7.47423003e-01,5.21164538e-05,6.05678350,-7.34308551e-01,-1,-0.9989067998386126
1.71225269e+05,3.99999747e-01,-6.03543033e-13,3.63062860,4.31974089e-01,-2.84509847,7.47422583e-01,5.33765044e-05,6.05952315,-7.26081280e-01,-1,-0.9988442779416064
1.80817126e+05,3.99999742e-01,-5.90659532e-13,3.63048264,4.28923222e-01,-2.84509847,7.47422152e-01,5.46685998e-05,6.06245353,-7.17281547e-01,-1,-0.9987783342067332
1.90952263e+05,3.99999736e-01,-5.76779385e-13,3.63032274,4.25579086e-01,-2.84509847,7.47421715e-01,5.59786974e-05,6.06566615,-7.07632500e-01,-1,-0.9987086554378326
2.01622575e+05,3.99999730e-01,-5.61619314e-13,3.63013710,4.21870110e-01,-2.84509847,7.47421279e-01,5.72884556e-05,6.06922995,-6.96929296e-01,-1,-0.9986352973565412
2.12866071e+05,3.99999724e-01,-5.44774540e-13,3.62992253,4.17676835e-01,-2.84509847,7.47420850e-01,5.85749237e-05,6.07325992,-6.84823345e-01,-1,-0.9985579986521015
2.24687890e+05,3.99999717e-01,-5.25988929e-13,3.62967205,4.12894184e-01,-2.84509847,7.47420438e-01,5.98112461e-05,6.07785757,-6.71010810e-01,-1,-0.9984767239940395
2.37108405e+05,3.99999711e-01,-5.04912616e-13,3.62937482,4.07373201e-01,-2.84509847,7.47420055e-01,6.09606465e-05,6.08316673,-6.55058804e-01,-1,-0.9983913333185793
2.50128435e+05,3.99999705e-01,-4.81414409e-13,3.62903115,4.00960480e-01,-2.84509847,7.47419715e-01,6.19792230e-05,6.08933604,-6.36520591e-01,-1,-0.99830182099512
2.63720289e+05,3.99999698e-01,-4.55475294e-13,3.62861993,3.93539920e-01,-2.84509847,7.47419434e-01,6.28228388e-05,6.09647801,-6.15062593e-01,-1,-0.9982083773984723
2.77876387e+05,3.99999692e-01,-4.27223403e-13,3.62811596,3.85013929e-01,-2.84509847,7.47419227e-01,6.34451225e-05,6.10468734,-5.90395337e-01,-1,-0.9981110546409134
2.92580536e+05,3.99999686e-01,-3.97596484e-13,3.62753469,3.75476065e-01,-2.84509847,7.47419096e-01,6.38366984e-05,6.11387566,-5.62779162e-01,-1,-0.9980099640488425
3.07882874e+05,3.99999680e-01,-3.67874777e-13,3.62687690,3.65190438e-01,-2.84509847,7.47419033e-01,6.40259695e-05,6.12379067,-5.32977153e-01,-1,-0.9979047609249833
3.23890533e+05,3.99999675e-01,-3.39509955e-13,3.62617964,3.54582200e-01,-2.84509847,7.47419012e-01,6.40894393e-05,6.13402192,-5.02223669e-01,-1,-0.9977947087399855
3.40729365e+05,3.99999669e-01,-3.13448608e-13,3.62545149,3.44020343e-01,-2.84509847,7.47419008e-01,6.41020553e-05,6.14421359,-4.71581055e-01,-1,-0.9976789422650494
3.58491790e+05,3.99999664e-01,-2.89827083e-13,3.62471473,3.33667789e-01,-2.84509847,7.47419007e-01,6.41033903e-05,6.15421901,-4.41496845e-01,-1,-0.9975568261153921
3.77240242e+05,3.99999659e-01,-2.68431873e-13,3.62397934,3.23545197e-01,-2.84509847,7.47419007e-01,6.41034541e-05,6.16412763,-4.11857462e-01,-1,-0.9974279310590991
3.97030227e+05,3.99999654e-01,-2.48980758e-13,3.62324312,3.13644759e-01,-2.84509847,7.47419007e-01,6.41034554e-05,6.17369669,-3.83076149e-01,-1,-0.9972918754940523
4.17920004e+05,3.99999649e-01,-2.31280431e-13,3.62250201,3.03948423e-01,-2.84509847,7.47419007e-01,6.41034555e-05,6.18307323,-3.54872481e-01,-1,-0.9971482588913395
4.39956340e+05,3.99999644e-01,-2.15077203e-13,3.62175816,2.94438028e-01,-2.84509847,7.47419007e-01,6.41034555e-05,6.19227502,-3.27191889e-01,-1,-0.9969967597292108
4.63207345e+05,3.99999639e-01,-2.00266358e-13,3.62102095,2.85098204e-01,-2.84509847,7.47419007e-01,6.41034555e-05,6.20131534,-2.99993248e-01,-1,-0.9968369097534184
4.87739856e+05,3.99999635e-01,-1.86690172e-13,3.62028373,2.75918222e-01,-2.84509847,7.47419007e-01,6.41034555e-05,6.21020385,-2.73246826e-01,-1,-0.9966682494615525
5.13629186e+05,3.99999630e-01,-1.74221023e-13,3.61955929,2.66883682e-01,-2.84509847,7.47419007e-01,6.41034555e-05,6.21895553,-2.46905051e-01,-1,-0.9964902610789522
5.40939527e+05,3.99999625e-01,-1.62753451e-13,3.61883939,2.57983843e-01,-2.84509847,7.47419007e-01,6.41034555e-05,6.22758025,-2.20944250e-01,-1,-0.9963025032875049
5.69747675e+05,3.99999621e-01,-1.52167973e-13,3.61812392,2.49208733e-01,-2.84509847,7.47419007e-01,6.41034555e-05,6.23608665,-1.95339457e-01,-1,-0.9961044481169683
6.00138806e+05,3.99999616e-01,-1.42395859e-13,3.61742211,2.40547509e-01,-2.84509847,7.47419007e-01,6.41034555e-05,6.24448533,-1.70057918e-01,-1,-0.9958955099848467
6.32193359e+05,3.99999612e-01,-1.33371354e-13,3.61672902,2.31992527e-01,-2.84509847,7.47419007e-01,6.41034555e-05,6.25278386,-1.45072323e-01,-1,-0.9956751358753798
6.66010938e+05,3.99999608e-01,-1.25018798e-13,3.61605033,2.23535566e-01,-2.84509847,7.47419007e-01,6.41034555e-05,6.26099062,-1.20358918e-01,-1,-0.9954426410139962
7.01697260e+05,3.99999603e-01,-1.17276415e-13,3.61538558,2.15169638e-01,-2.84509847,7.47419007e-01,6.41034555e-05,6.26911193,-9.59000120e-02,-1,-0.9951972985994287
7.39332527e+05,3.99999599e-01,-1.10088471e-13,3.61473163,2.06887445e-01,-2.84509847,7.47419007e-01,6.41034555e-05,6.27715380,-7.16761307e-02,-1,-0.9949385572452857
7.79019453e+05,3.99999595e-01,-1.03398771e-13,3.61408972,1.98683057e-01,-2.84509847,7.47419007e-01,6.41034556e-05,6.28512154,-4.76708285e-02,-1,-0.9946657107958365
8.20888257e+05,3.99999591e-01,-9.71875358e-14,3.61346519,1.90550830e-01,-2.84509847,7.47419007e-01,6.41034556e-05,6.29302060,-2.38648527e-02,-1,-0.994377863999285
8.65068038e+05,3.99999587e-01,-9.14029443e-14,3.61285435,1.82486098e-01,-2.84509847,7.47419007e-01,6.41034556e-05,6.30085663,-2.48156257e-04,-1,-0.9940741293038015
9.11651365e+05,3.99999583e-01,-8.60094189e-14,3.61225716,1.74482750e-01,-2.84509847,7.47419007e-01,6.41034557e-05,6.30863571,2.31996297e-02,-1,-0.9937538703002324
9.60786148e+05,3.99999579e-01,-8.09716344e-14,3.61167359,1.66536043e-01,-2.84509847,7.47419007e-01,6.41034557e-05,6.31636231,4.64888268e-02,-1,-0.9934160701116767
1.01262565e+06,3.99999575e-01,-7.62756408e-14,3.61110523,1.58641886e-01,-2.84509847,7.47419007e-01,6.41034558e-05,6.32403948,6.96345306e-02,-1,-0.993059675059515
1.06729773e+06,3.99999571e-01,-7.18793832e-14,3.61054690,1.50797187e-01,-2.84509847,7.47419007e-01,6.41034560e-05,6.33166942,9.26430780e-02,-1,-0.9926838061168815
1.12495380e+06,3.99999567e-01,-6.77654633e-14,3.61000697,1.42996688e-01,-2.84509847,7.47419007e-01,6.41034561e-05,6.33925753,1.15529879e-01,-1,-0.9922874223307275
1.18581173e+06,3.99999563e-01,-6.39211751e-14,3.60950337,1.35233647e-01,-2.84509847,7.47419007e-01,6.41034563e-05,6.34681070,1.38312978e-01,-1,-0.9918690258512088
1.24997563e+06,3.99999559e-01,-6.03291008e-14,3.60901948,1.27505456e-01,-2.84509847,7.47419007e-01,6.41034565e-05,6.35433159,1.61001626e-01,-1,-0.9914279009251361
1.31768596e+06,3.99999555e-01,-5.69586521e-14,3.60854792,1.19811136e-01,-2.84509847,7.47419007e-01,6.41034569e-05,6.36182128,1.83599449e-01,-1,-0.9909623943970788
1.38907232e+06,3.99999551e-01,-5.37915512e-14,3.60808805,1.12147420e-01,-2.84509847,7.47419007e-01,6.41034573e-05,6.36928274,2.06117072e-01,-1,-0.9904716152708474
1.46438001e+06,3.99999547e-01,-5.08165587e-14,3.60763823,1.04512490e-01,-2.84509847,7.47419007e-01,6.41034578e-05,6.37671775,2.28562515e-01,-1,-0.9899538771161535
1.54379143e+06,3.99999543e-01,-4.80172973e-14,3.60719696,9.69041226e-02,-2.84509847,7.47419007e-01,6.41034585e-05,6.38412834,2.50934631e-01,-1,-0.9894079259383598
1.62755214e+06,3.99999539e-01,-4.53853497e-14,3.60676684,8.93200953e-02,-2.84509847,7.47419007e-01,6.41034593e-05,6.39151665,2.73241678e-01,-1,-0.9888320735196858
1.71589049e+06,3.99999535e-01,-4.29063076e-14,3.60634647,8.17581719e-02,-2.84509847,7.47419007e-01,6.41034604e-05,6.39888396,2.95489718e-01,-1,-0.9882247499605952
1.80905308e+06,3.99999531e-01,-4.05732123e-14,3.60593430,7.42170361e-02,-2.84509847,7.47419007e-01,6.41034618e-05,6.40623193,3.17683209e-01,-1,-0.9875842598933378
1.90730978e+06,3.99999528e-01,-3.83754465e-14,3.60552865,6.66952125e-02,-2.84509847,7.47419007e-01,6.41034635e-05,6.41356093,3.39825399e-01,-1,-0.9869087479695978
2.01092539e+06,3.99999524e-01,-3.63008426e-14,3.60512981,5.91912242e-02,-2.84509847,7.47419007e-01,6.41034657e-05,6.42087307,3.61922034e-01,-1,-0.9861963936971606
