star_age,star_mass,star_mdot,log_Teff,log_R,log_surf_z,surface_h1,surface_he3,log_center_T,log_center_Rho,phase,x
2.70214377e+02,4.39999972,-9.07682890e-10,3.65481898,1.80634249,-2.84509849,7.47426483e-01,4.16806609e-05,5.71586517,-3.78956589,-1,-1.0
2.82838142e+02,4.39999971,-8.96490920e-10,3.65502945,1.80431825,-2.84509849,7.47426483e-01,4.16806609e-05,5.71784560,-3.78363154,-1,-0.999982507449065
2.96015605e+02,4.39999970,-8.85279654e-10,3.65522817,1.80223025,-2.84509849,7.47426483e-01,4.16806609e-05,5.71988868,-3.77750912,-1,-0.9999642476475937
3.09788815e+02,4.39999968,-8.73850062e-10,3.65542646,1.80007526,-2.84509849,7.47426483e-01,4.16806609e-05,5.72199735,-3.77118938,-1,-0.9999451623289536
3.23341920e+02,4.39999967,-8.63003175e-10,3.65842989,1.79771529,-2.84509849,7.47426483e-01,4.16806609e-05,5.72410597,-3.76487461,-1,-0.9999263820063209
3.37460437e+02,4.39999966,-8.69943359e-10,3.66153995,1.79524461,-2.84509849,7.47426483e-01,4.16806609e-05,5.72632281,-3.75823517,-1,-0.9999068182012478
3.53122246e+02,4.39999965,-8.79279720e-10,3.66197676,1.79275738,-2.84509849,7.47426483e-01,4.16806609e-05,5.72875335,-3.75094956,-1,-0.9998851158809284
3.69487900e+02,4.39999963,-8.67055768e-10,3.66226983,1.79019853,-2.84509849,7.47426483e-01,4.16806609e-05,5.73125726,-3.74344473,-1,-0.9998624382537563
3.86689278e+02,4.39999962,-8.54529811e-10,3.66255631,1.78755596,-2.84509849,7.47426483e-01,4.16806609e-05,5.73384387,-3.73569147,-1,-0.9998386025770928
4.04670750e+02,4.39999960,-8.41792276e-10,3.66285028,1.78483766,-2.84509849,7.47426483e-01,4.16806609e-05,5.73650461,-3.72771706,-1,-0.9998136859365465
4.23463343e+02,4.39999959,-8.28369314e-10,3.66315083,1.78204226,-2.84509849,7.47426483e-01,4.16806609e-05,5.73924090,-3.71951579,-1,-0.9997876453384957
4.43104452e+02,4.39999957,-8.14521130e-10,3.66345744,1.77916850,-2.84509849,7.47426483e-01,4.16806609e-05,5.74205405,-3.71108377,-1,-0.9997604289652822
4.63630575e+02,4.39999955,-8.00498070e-10,3.66380712,1.77621379,-2.84509849,7.47426483e-01,4.16806609e-05,5.74494582,-3.70241763,-1,-0.9997319862422058
4.85134772e+02,4.39999954,-7.86206340e-10,3.66413610,1.77317432,-2.84509849,7.47426483e-01,4.16806609e-05,5.74792125,-3.69350009,-1,-0.999702188217501
5.07673242e+02,4.39999952,-7.71774682e-10,3.66446471,1.77004890,-2.84509849,7.47426483e-01,4.16806609e-05,5.75098095,-3.68432818,-1,-0.9996709570171047
5.31192007e+02,4.39999950,-7.57462468e-10,3.66480076,1.76684537,-2.84509849,7.47426483e-01,4.16806609e-05,5.75411731,-3.67492659,-1,-0.9996383674374754
5.55762811e+02,4.39999948,-7.42903668e-10,3.66514702,1.76356045,-2.84509849,7.47426483e-01,4.16806609e-05,5.75733330,-3.66528605,-1,-0.9996043200640902
5.81573701e+02,4.39999946,-7.28204208e-10,3.66554533,1.76018087,-2.84509849,7.47426483e-01,4.16806609e-05,5.76064155,-3.65536736,-1,-0.9995685543232037
6.08471906e+02,4.39999944,-7.13359832e-10,3.66590887,1.75672436,-2.84509849,7.47426483e-01,4.16806609e-05,5.76402616,-3.64521989,-1,-0.9995312819071677
6.36671127e+02,4.39999942,-6.98721940e-10,3.66631135,1.75317739,-2.84509849,7.47426483e-01,4.16806609e-05,5.76749883,-3.63480927,-1,-0.9994922066938958
6.66127267e+02,4.39999940,-6.83937687e-10,3.66668679,1.74954906,-2.84509849,7.47426483e-01,4.16806609e-05,5.77105201,-3.62415826,-1,-0.9994513897879017
6.96957217e+02,4.39999938,-6.69042908e-10,3.66712828,1.74583153,-2.84509849,7.47426483e-01,4.16806609e-05,5.77469179,-3.61325047,-1,-0.9994086692151806
7.29169102e+02,4.39999936,-6.54181155e-10,3.66753357,1.74203138,-2.84509849,7.47426483e-01,4.16806609e-05,5.77841307,-3.60209584,-1,-0.9993640337170487
7.62914095e+02,4.39999934,-6.39402368e-10,3.66793375,1.73814433,-2.84509849,7.47426483e-01,4.16806609e-05,5.78222007,-3.59068250,-1,-0.9993172738154781
7.98123597e+02,4.39999932,-6.24439870e-10,3.66840662,1.73417380,-2.84509849,7.47426483e-01,4.16806609e-05,5.78610712,-3.57902808,-1,-0.9992684845670146
8.35044739e+02,4.39999930,-6.09881402e-10,3.66886608,1.73011322,-2.84509849,7.47426483e-01,4.16806609e-05,5.79008347,-3.56710526,-1,-0.9992173235261514
8.73618220e+02,4.39999927,-5.95193936e-10,3.66931748,1.72596987,-2.84509849,7.47426483e-01,4.16806609e-05,5.79414148,-3.55493623,-1,-0.9991638728653438
9.13912932e+02,4.39999925,-5.80608883e-10,3.66976143,1.72174553,-2.84509849,7.47426483e-01,4.16806609e-05,5.79827941,-3.54252798,-1,-0.9991080371220398
9.56060167e+02,4.39999923,-5.65911782e-10,3.67020366,1.71743843,-2.84509849,7.47426483e-01,4.16806609e-05,5.80249934,-3.52987492,-1,-0.9990496343669977
1.00020075e+03,4.39999920,-5.51388203e-10,3.67068548,1.71304423,-2.84509849,7.47426483e-01,4.16806609e-05,5.80680388,-3.51696816,-1,-0.9989884694612484
1.04633782e+03,4.39999918,-5.36966822e-10,3.67120730,1.70856704,-2.84509849,7.47426483e-01,4.16806609e-05,5.81118960,-3.50381907,-1,-0.9989245380551295
1.09456003e+03,4.39999915,-5.22929283e-10,3.67172085,1.70400781,-2.84509849,7.47426483e-01,4.16806609e-05,5.81565578,-3.49042730,-1,-0.998857717303585
1.14497318e+03,4.39999913,-5.08842303e-10,3.67222435,1.69936968,-2.84509849,7.47426483e-01,4.16806609e-05,5.82019998,-3.47679913,-1,-0.998787860601233
1.19769195e+03,4.39999910,-4.94858690e-10,3.67277019,1.69464857,-2.84509849,7.47426483e-01,4.16806609e-05,5.82482538,-3.46292590,-1,-0.9987148090378165
1.25281455e+03,4.39999907,-4.81083239e-10,3.67327597,1.68985074,-2.84509849,7.47426483e-01,4.16806609e-05,5.82952713,-3.44882404,-1,-0.9986384265252961
1.31044231e+03,4.39999905,-4.67459200e-10,3.67378755,1.68497701,-2.84509849,7.47426483e-01,4.16806609e-05,5.83430375,-3.43450058,-1,-0.998558572652298
1.37069628e+03,4.39999902,-4.53932628e-10,3.67430207,1.68002792,-2.84509849,7.47426483e-01,4.16806609e-05,5.83915482,-3.41995449,-1,-0.9984750796817573
1.43373953e+03,4.39999899,-4.40512782e-10,3.67492045,1.67499669,-2.84509849,7.47426482e-01,4.16806609e-05,5.84408459,-3.40516863,-1,-0.9983877216501613
1.49964440e+03,4.39999896,-4.27609549e-10,3.67549169,1.66988983,-2.84509849,7.47426482e-01,4.16806609e-05,5.84908977,-3.39015770,-1,-0.9982963983171195
1.56851631e+03,4.39999893,-4.14513642e-10,3.67604088,1.66471153,-2.84509849,7.47426482e-01,4.16806609e-05,5.85416590,-3.37493191,-1,-0.9982009636038099
1.64048209e+03,4.39999890,-4.01430431e-10,3.67662835,1.65945916,-2.84509849,7.47426482e-01,4.16806609e-05,5.85931503,-3.35948773,-1,-0.9981012417639132
1.71580241e+03,4.39999887,-3.89131664e-10,3.67719890,1.65413424,-2.84509849,7.47426482e-01,4.16806610e-05,5.86453625,-3.34382890,-1,-0.9979968715911449
1.79445534e+03,4.39999884,-3.76776591e-10,3.67776146,1.64874434,-2.84509849,7.47426482e-01,4.16806610e-05,5.86982190,-3.32797760,-1,-0.9978878834735581
1.87677230e+03,4.39999881,-3.64913216e-10,3.67837929,1.64328331,-2.84509848,7.47426482e-01,4.16806612e-05,5.87517711,-3.31191606,-1,-0.9977738181677155
1.96278330e+03,4.39999878,-3.53552190e-10,3.67896623,1.63775960,-2.84509848,7.47426482e-01,4.16806612e-05,5.88059520,-3.29566265,-1,-0.9976546340892359
2.05263091e+03,4.39999875,-3.42243732e-10,3.67954790,1.63217582,-2.84509848,7.47426482e-01,4.16806612e-05,5.88607306,-3.27923031,-1,-0.997530133681132
2.14673493e+03,4.39999872,-3.31051187e-10,3.68020907,1.62652438,-2.84509848,7.47426482e-01,4.16806617e-05,5.89161643,-3.26260291,-1,-0.9973997352332019
2.24499754e+03,4.39999869,-3.20122128e-10,3.68080890,1.62081616,-2.84509848,7.47426482e-01,4.16806618e-05,5.89721708,-3.24580509,-1,-0.9972635742930683
2.34764986e+03,4.39999866,-3.09448321e-10,3.68143722,1.61504918,-2.84509848,7.47426482e-01,4.16806620e-05,5.90287498,-3.22883675,-1,-0.9971213306014128
2.45509640e+03,4.39999862,-2.98878673e-10,3.68206027,1.60921996,-2.84509848,7.47426482e-01,4.16806626e-05,5.90856819,-3.21172743,-1,-0.9969724436351445
2.56733645e+03,4.39999859,-2.88660229e-10,3.68267112,1.60334258,-2.84509848,7.47426482e-01,4.16806636e-05,5.91426402,-3.19455480,-1,-0.996816914378099
2.68461000e+03,4.39999856,-2.78648741e-10,3.68330843,1.59740629,-2.84509848,7.47426482e-01,4.16806650e-05,5.92008386,-3.17708606,-1,-0.9966544102799398
2.80738371e+03,4.39999853,-2.69061585e-10,3.68400310,1.59140599,-2.84509847,7.47426481e-01,4.16806674e-05,5.92596631,-3.15943272,-1,-0.9964842846973068
2.93545311e+03,4.39999849,-2.59539585e-10,3.68462960,1.58535899,-2.84509847,7.47426481e-01,4.16806696e-05,5.93189977,-3.14163271,-1,-0.9963068209610356
3.06959057e+03,4.39999846,-2.50386425e-10,3.68530373,1.57925273,-2.84509847,7.47426481e-01,4.16806738e-05,5.93789455,-3.12365036,-1,-0.996120948810268
3.20955157e+03,4.39999842,-2.41428704e-10,3.68593978,1.57310575,-2.84509847,7.47426481e-01,4.16806792e-05,5.94392969,-3.10554561,-1,-0.9959270070724896
3.35606704e+03,4.39999839,-2.32645581e-10,3.68661361,1.56690723,-2.84509847,7.47426481e-01,4.16806868e-05,5.95001589,-3.08728241,-1,-0.9957239829095925
3.50901468e+03,4.39999835,-2.24213587e-10,3.68729906,1.56066216,-2.84509847,7.47426481e-01,4.16806978e-05,5.95614959,-3.06888094,-1,-0.9955120457907471
3.66907852e+03,4.39999832,-2.16039660e-10,3.68795180,1.55437076,-2.84509847,7.47426481e-01,4.16807126e-05,5.96233047,-3.05034044,-1,-0.9952902478664318
3.83615586e+03,4.39999828,-2.08071611e-10,3.68860235,1.54803842,-2.84509847,7.47426481e-01,4.16807304e-05,5.96855236,-3.03167779,-1,-0.9950587314464077
4.01102867e+03,4.39999825,-2.00305084e-10,3.68930585,1.54166170,-2.84509847,7.47426481e-01,4.16807476e-05,5.97481758,-3.01288150,-1,-0.9948164129672485
4.19372044e+03,4.39999821,-1.92882313e-10,3.69001290,1.53524120,-2.84509847,7.47426481e-01,4.16807788e-05,5.98112676,-2.99395389,-1,-0.9945632598792338
4.38456917e+03,4.39999818,-1.85648205e-10,3.69069789,1.52878325,-2.84509847,7.47426481e-01,4.16808176e-05,5.98747402,-2.97491397,-1,-0.9942988038211247
4.58417051e+03,4.39999814,-1.78546751e-10,3.69136395,1.52228522,-2.84509847,7.47426481e-01,4.16808674e-05,5.99385940,-2.95574820,-1,-0.9940222194101637
4.79273441e+03,4.39999810,-1.71767945e-10,3.69204637,1.51575482,-2.84509855,7.47426485e-01,4.16809330e-05,6.00023466,-2.93643757,-1,-0.9937332157219659
5.01064373e+03,4.39999807,-1.65183024e-10,3.69274879,1.50918891,-2.84509961,7.47426556e-01,4.16809793e-05,6.00658239,-2.91694104,-1,-0.9934312622335018
5.23853923e+03,4.39999803,-1.58838824e-10,3.69344088,1.50258882,-2.84509853,7.47426484e-01,4.16811202e-05,6.01290250,-2.89725394,-1,-0.9931154710538025
5.47671224e+03,4.39999799,-1.52704291e-10,3.69412724,1.49595791,-2.84509851,7.47426483e-01,4.16812501e-05,6.01919713,-2.87738576,-1,-0.9927854384915078
5.72557093e+03,4.39999796,-1.46610133e-10,3.69483452,1.48929433,-2.84509931,7.47426532e-01,4.16813796e-05,6.02546915,-2.85732437,-1,-0.9924405989519227
5.98567924e+03,4.39999792,-1.40768482e-10,3.69555425,1.48259731,-2.84509850,7.47426482e-01,4.16815998e-05,6.03172997,-2.83707571,-1,-0.9920801709923338
6.25741869e+03,4.39999788,-1.35233804e-10,3.69625516,1.47587651,-2.84509849,7.47426482e-01,4.16818288e-05,6.03796716,-2.81664915,-1,-0.9917036259465285
6.54168667e+03,4.39999785,-1.30022609e-10,3.69697591,1.46912923,-2.84509849,7.47426482e-01,4.16820992e-05,6.04418448,-2.79601843,-1,-0.9913097203154171
6.83862206e+03,4.39999781,-1.24803465e-10,3.69766763,1.46236427,-2.84509849,7.47426481e-01,4.16824168e-05,6.05038235,-2.77522641,-1,-0.9908982616551866
7.14889223e+03,4.39999777,-1.19860758e-10,3.69838925,1.45557781,-2.84509849,7.47426481e-01,4.16827850e-05,6.05656874,-2.75425441,-1,-0.990468325201813
7.47338571e+03,4.39999773,-1.15114903e-10,3.69908551,1.44877655,-2.84509848,7.47426481e-01,4.16832124e-05,6.06273998,-2.73311179,-1,-0.9900186797333684
7.81245633e+03,4.39999769,-1.10556312e-10,3.69982664,1.44195673,-2.84509848,7.47426481e-01,4.16837043e-05,6.06890566,-2.71179099,-1,-0.9895488349532338
8.16682379e+03,4.39999766,-1.06145058e-10,3.70052841,1.43512777,-2.84509848,7.47426480e-01,4.16842698e-05,6.07505998,-2.69031942,-1,-0.9890577935845344
8.53721386e+03,4.39999762,-1.01915110e-10,3.70124392,1.42828702,-2.84509848,7.47426480e-01,4.16849205e-05,6.08120832,-2.66867454,-1,-0.9885445499392925
8.92418332e+03,4.39999758,-9.78447540e-11,3.70193518,1.42144220,-2.84509848,7.47426480e-01,4.16856668e-05,6.08735061,-2.64689115,-1,-0.9880083324962935
9.32898039e+03,4.39999754,-9.39405774e-11,3.70267029,1.41458841,-2.84509848,7.47426480e-01,4.16865159e-05,6.09350034,-2.62494559,-1,-0.9874474116168811
9.75169282e+03,4.39999750,-9.01922002e-11,3.70337856,1.40773412,-2.84509848,7.47426479e-01,4.16874790e-05,6.09965238,-2.60286588,-1,-0.9868616657072723
1.01938755e+04,4.39999746,-8.67172060e-11,3.70407642,1.40088248,-2.84509848,7.47426479e-01,4.16885763e-05,6.10580826,-2.58065127,-1,-0.9862489401810562
1.06560673e+04,4.39999742,-8.33025381e-11,3.70482765,1.39403514,-2.84510498,7.47426823e-01,4.16894258e-05,6.11197692,-2.55833262,-1,-0.9856084883346207
1.11389367e+04,4.39999739,-8.00148527e-11,3.70552435,1.38719710,-2.84509848,7.47426478e-01,4.16912346e-05,6.11815896,-2.53592011,-1,-0.9849393838658327
1.16440536e+04,4.39999735,-7.68246753e-11,3.70623698,1.38036824,-2.84509848,7.47426477e-01,4.16928219e-05,6.12436134,-2.51341931,-1,-0.9842394513891622
1.21718529e+04,4.39999731,-7.37365361e-11,3.70693066,1.37355264,-2.84509848,7.47426477e-01,4.16945948e-05,6.13058743,-2.49085293,-1,-0.9835080882705773
1.27237102e+04,4.39999727,-7.08183209e-11,3.70763226,1.36675517,-2.84509848,7.47426476e-01,4.16965839e-05,6.13683964,-2.46824041,-1,-0.9827433883629765
1.33007031e+04,4.39999723,-6.80153932e-11,3.70834896,1.35997899,-2.84509848,7.47426475e-01,4.16988025e-05,6.14312760,-2.44561226,-1,-0.9819438584531314
1.39038283e+04,4.39999719,-6.53399117e-11,3.70904120,1.35323284,-2.84509847,7.47426475e-01,4.17012719e-05,6.14945849,-2.42301857,-1,-0.9811081174296606
1.45343824e+04,4.39999715,-6.27781759e-11,3.70973060,1.34652190,-2.84509847,7.47426474e-01,4.17040183e-05,6.15583771,-2.40045526,-1,-0.9802343686145097
1.51937928e+04,4.39999711,-6.03362586e-11,3.71043741,1.33984718,-2.84509847,7.47426473e-01,4.17070639e-05,6.16223939,-2.37801224,-1,-0.9793206340821387
1.58832215e+04,4.39999707,-5.79904822e-11,3.71112501,1.33322030,-2.84509847,7.47426472e-01,4.17104292e-05,6.16867261,-2.35572580,-1,-0.9783653036675778
1.66048669e+04,4.39999703,-5.57770057e-11,3.71183143,1.32664542,-2.84510144,7.47426509e-01,4.17141016e-05,6.17514034,-2.33357648,-1,-0.9773653310828161
1.73593990e+04,4.39999698,-5.36586201e-11,3.71249963,1.32013311,-2.84509847,7.47426469e-01,4.17182430e-05,6.18159194,-2.31165073,-1,-0.9763197879194804
1.81486754e+04,4.39999694,-5.16358159e-11,3.71318117,1.31368971,-2.84509847,7.47426468e-01,4.17227432e-05,6.18801199,-2.28993760,-1,-0.975226100130714
1.89739216e+04,4.39999690,-4.97184570e-11,3.71383430,1.30732749,-2.84509847,7.47426466e-01,4.17276763e-05,6.19441974,-2.26829774,-1,-0.9740825695606047
1.98368747e+04,4.39999686,-4.78892195e-11,3.71447636,1.30104874,-2.84509883,7.47426468e-01,4.17330721e-05,6.20062394,-2.24691660,-1,-0.9728867891372345
2.07408993e+04,4.39999682,-4.61626723e-11,3.71515859,1.29484970,-2.84509847,7.47426462e-01,4.17389921e-05,6.20666366,-2.22548644,-1,-0.9716340965877495
2.16859782e+04,4.39999678,-4.45124193e-11,3.71578971,1.28874354,-2.84509847,7.47426460e-01,4.17454490e-05,6.21241829,-2.20407642,-1,-0.9703245157459166
2.26739677e+04,4.39999673,-4.29477903e-11,3.71642307,1.28272299,-2.84509847,7.47426458e-01,4.17524948e-05,6.21790020,-2.18245364,-1,-0.9689554743662689
2.37079905e+04,4.39999669,-4.14589212e-11,3.71703803,1.27679067,-2.84509847,7.47426455e-01,4.17601875e-05,6.22310092,-2.16049701,-1,-0.9675226453729454
2.47898594e+04,4.39999665,-4.00392174e-11,3.71770205,1.27093369,-2.84510567,7.47426556e-01,4.17684738e-05,6.22795316,-2.13830662,-1,-0.9660235167977389
2.59197716e+04,4.39999660,-3.86958524e-11,3.71831625,1.26514957,-2.84509847,7.47426449e-01,4.17776915e-05,6.23275739,-2.11552398,-1,-0.9644578153837373
2.71032435e+04,4.39999656,-3.74076080e-11,3.71895474,1.25943387,-2.84509847,7.47426446e-01,4.17876175e-05,6.23755007,-2.09216802,-1,-0.9628178971429561
2.83393555e+04,4.39999651,-3.61813021e-11,3.71957078,1.25378735,-2.84509847,7.47426443e-01,4.17983354e-05,6.24239566,-2.06833551,-1,-0.9611050363505295
2.96324772e+04,4.39999647,-3.50070779e-11,3.72019020,1.24820876,-2.84509847,7.47426439e-01,4.18098644e-05,6.24736165,-2.04400041,-1,-0.9593131781210439
3.09848278e+04,4.39999642,-3.38860431e-11,3.72081300,1.24270302,-2.84509847,7.47426435e-01,4.18221092e-05,6.25248987,-2.01923094,-1,-0.9574392473442579
3.23982420e+04,4.39999637,-3.28182471e-11,3.72144661,1.23727277,-2.84509847,7.47426430e-01,4.18349772e-05,6.25780647,-1.99405990,-1,-0.9554807017054816
3.38781169e+04,4.39999633,-3.18057977e-11,3.72209111,1.23192120,-2.84509848,7.47426426e-01,4.18483396e-05,6.26334385,-1.96846500,-1,-0.9534300625288487
3.54243135e+04,4.39999628,-3.08435507e-11,3.72273896,1.22664945,-2.84509870,7.47426422e-01,4.18619886e-05,6.26909079,-1.94244445,-1,-0.9512875224244542
3.70421445e+04,4.39999623,-2.99326084e-11,3.72341788,1.22146411,-2.84509848,7.47426417e-01,4.18756879e-05,6.27508154,-1.91593483,-1,-0.9490457196681731
3.87343516e+04,4.39999618,-2.90700940e-11,3.72408918,1.21637250,-2.84509848,7.47426413e-01,4.18892259e-05,6.28132268,-1.88886857,-1,-0.9467008551298013
4.05030637e+04,4.39999613,-2.82499580e-11,3.72477984,1.21137445,-2.84509848,7.47426408e-01,4.19023587e-05,6.28770520,-1.86144166,-1,-0.9442499788263753
4.23539483e+04,4.39999608,-2.74803703e-11,3.72547887,1.20648595,-2.84509848,7.47426404e-01,4.19148696e-05,6.29430135,-1.83359493,-1,-0.9416852373930376
4.42902574e+04,4.39999602,-2.67535134e-11,3.72618996,1.20171345,-2.84509848,7.47426401e-01,4.19265439e-05,6.30111062,-1.80531402,-1,-0.9390021245849678
4.63145530e+04,4.39999597,-2.60716784e-11,3.72694821,1.19706336,-2.84509848,7.47426397e-01,4.19372449e-05,6.30813526,-1.77655811,-1,-0.9361970902794019
4.84317028e+04,4.39999592,-2.54393192e-11,3.72769683,1.19255204,-2.84509848,7.47426394e-01,4.19468398e-05,6.31537623,-1.74729790,-1,-0.9332633893816566
5.06477268e+04,4.39999586,-2.48480781e-11,3.72847005,1.18820013,-2.84509848,7.47426391e-01,4.19552400e-05,6.32284234,-1.71750404,-1,-0.9301926800732152
5.29648151e+04,4.39999580,-2.43068115e-11,3.72927254,1.18402316,-2.84509848,7.47426389e-01,4.19624529e-05,6.33053290,-1.68716258,-1,-0.9269819275672446
5.53875463e+04,4.39999575,-2.38131404e-11,3.73010134,1.18004500,-2.84509848,7.47426387e-01,4.19684788e-05,6.33846210,-1.65625719,-1,-0.9236247873703461
5.79213189e+04,4.39999569,-2.33706414e-11,3.73094930,1.17629802,-2.84509848,7.47426386e-01,4.19733579e-05,6.34663944,-1.62477147,-1,-0.9201137788666955
6.05732326e+04,4.39999563,-2.29889479e-11,3.73187694,1.17281669,-2.84509848,7.47426385e-01,4.19772089e-05,6.35507138,-1.59265147,-1,-0.9164390641146108
6.33458545e+04,4.39999556,-2.26630547e-11,3.73279840,1.16964158,-2.84509848,7.47426384e-01,4.19801624e-05,6.36375756,-1.55987153,-1,-0.9125970859243391
6.62441674e+04,4.39999550,-2.24003366e-11,3.73376011,1.16682524,-2.84509848,7.47426384e-01,4.19823457e-05,6.37271947,-1.52641762,-1,-0.9085809397089524
6.92726832e+04,4.39999543,-2.22100858e-11,3.73477855,1.16442508,-2.84509848,7.47426384e-01,4.19838842e-05,6.38197488,-1.49225268,-1,-0.9043843734001841
7.24364205e+04,4.39999536,-2.21041661e-11,3.73584416,1.16251285,-2.84509848,7.47426384e-01,4.19849235e-05,6.39153643,-1.45732969,-1,-0.900000432803614
7.57392628e+04,4.39999529,-2.20928301e-11,3.73696770,1.16117789,-2.84509848,7.47426384e-01,4.19855777e-05,6.40142268,-1.42161639,-1,-0.8954237366148885
7.91838171e+04,4.39999521,-2.21966924e-11,3.73816158,1.16052053,-2.84509848,7.47426384e-01,4.19859611e-05,6.41165163,-1.38507895,-1,-0.890650672355457
8.27696842e+04,4.39999513,-2.24378032e-11,3.73943718,1.16064694,-2.84509848,7.47426385e-01,4.19861656e-05,6.42223129,-1.34769195,-1,-0.8856817931904281
8.64924786e+04,4.39999505,-2.28403558e-11,3.74080649,1.16165077,-2.84509848,7.47426386e-01,4.19862641e-05,6.43317162,-1.30945898,-1,-0.8805231760375931
9.03457675e+04,4.39999496,-2.34399979e-11,3.74230640,1.16362054,-2.84509849,7.47426387e-01,4.19863066e-05,6.44448273,-1.27040718,-1,-0.8751837347258816
