star_age,star_mass,star_mdot,log_Teff,log_R,log_surf_z,surface_h1,surface_he3,log_center_T,log_center_Rho,phase,x
2.22802029e+02,5.59999964,-1.39043050e-09,3.65379006,1.90440605,-2.84509848,7.47426482e-01,4.16806609e-05,5.71599787,-3.98168325,-1,-1.0
2.32895485e+02,5.59999963,-1.37426578e-09,3.65397288,1.90245389,-2.84509848,7.47426482e-01,4.16806609e-05,5.71792051,-3.97591838,-1,-0.9999762281567268
2.43411119e+02,5.59999962,-1.35764587e-09,3.65415942,1.90044283,-2.84509848,7.47426482e-01,4.16806609e-05,5.71990124,-3.96998016,-1,-0.9999514620108829
2.54383486e+02,5.59999960,-1.34084843e-09,3.65435051,1.89836956,-2.84509848,7.47426482e-01,4.16806609e-05,5.72194319,-3.96385835,-1,-0.999925620179437
2.65836711e+02,5.59999959,-1.32379863e-09,3.65458661,1.89623063,-2.84509848,7.47426482e-01,4.16806609e-05,5.72404899,-3.95754474,-1,-0.9998986458438207
2.77382536e+02,5.59999957,-1.30703299e-09,3.65633602,1.89395735,-2.84509848,7.47426482e-01,4.16806609e-05,5.72617784,-3.95116517,-1,-0.9998714534191091
2.88699948e+02,5.59999956,-1.30166191e-09,3.66057201,1.89149373,-2.84509848,7.47426482e-01,4.16806609e-05,5.72831087,-3.94477882,-1,-0.9998447989467142
3.01706521e+02,5.59999954,-1.33039116e-09,3.66096531,1.88903218,-2.84509848,7.47426482e-01,4.16806609e-05,5.73073192,-3.93751922,-1,-0.9998141662065629
3.15273278e+02,5.59999952,-1.31183710e-09,3.66124490,1.88650416,-2.84509848,7.47426482e-01,4.16806609e-05,5.73322200,-3.93005109,-1,-0.9997822141357233
3.29443810e+02,5.59999950,-1.29398479e-09,3.66152729,1.88390522,-2.84509848,7.47426482e-01,4.16806609e-05,5.73578204,-3.92237434,-1,-0.9997488400698136
3.44294803e+02,5.59999948,-1.27477337e-09,3.66182224,1.88122757,-2.84509848,7.47426482e-01,4.16806609e-05,5.73841963,-3.91446443,-1,-0.9997138633999746
3.59796167e+02,5.59999946,-1.25487159e-09,3.66213462,1.87847614,-2.84509848,7.47426482e-01,4.16806609e-05,5.74112944,-3.90633887,-1,-0.9996773549933864
3.75976682e+02,5.59999944,-1.23430015e-09,3.66243360,1.87565097,-2.84509848,7.47426482e-01,4.16806609e-05,5.74391241,-3.89799264,-1,-0.9996392470681467
3.92865554e+02,5.59999942,-1.21343619e-09,3.66276671,1.87274949,-2.84509848,7.47426482e-01,4.16806609e-05,5.74676968,-3.88942316,-1,-0.9995994708390489
4.10480944e+02,5.59999940,-1.19252279e-09,3.66309578,1.86977309,-2.84509848,7.47426482e-01,4.16806609e-05,5.74970125,-3.88063194,-1,-0.9995579835337816
4.28946455e+02,5.59999938,-1.17117665e-09,3.66342712,1.86671253,-2.84509848,7.47426482e-01,4.16806609e-05,5.75271572,-3.87159273,-1,-0.9995144940457954
4.48235243e+02,5.59999936,-1.14982049e-09,3.66378334,1.86357268,-2.84509848,7.47426482e-01,4.16806609e-05,5.75580768,-3.86232011,-1,-0.9994690655973765
4.68335954e+02,5.59999934,-1.12814947e-09,3.66414354,1.86035723,-2.84509848,7.47426482e-01,4.16806609e-05,5.75897411,-3.85282464,-1,-0.9994217249291683
4.89348240e+02,5.59999931,-1.10643054e-09,3.66449788,1.85706139,-2.84509848,7.47426482e-01,4.16806609e-05,5.76222002,-3.84309137,-1,-0.9993722373433896
5.11334281e+02,5.59999929,-1.08470553e-09,3.66487872,1.85368176,-2.84509848,7.47426482e-01,4.16806609e-05,5.76554801,-3.83311281,-1,-0.999320456395333
5.34212828e+02,5.59999926,-1.06264347e-09,3.66524379,1.85022954,-2.84509848,7.47426482e-01,4.16806609e-05,5.76894793,-3.82291797,-1,-0.9992665734405154
5.58229187e+02,5.59999924,-1.04103974e-09,3.66570103,1.84668338,-2.84509848,7.47426482e-01,4.16806609e-05,5.77243859,-3.81245177,-1,-0.9992100107406692
5.83209943e+02,5.59999921,-1.01928293e-09,3.66611144,1.84306579,-2.84509848,7.47426482e-01,4.16806609e-05,5.77600069,-3.80177067,-1,-0.9991511767182613
6.09383229e+02,5.59999919,-9.97226738e-10,3.66650958,1.83936239,-2.84509848,7.47426482e-01,4.16806609e-05,5.77964789,-3.79083331,-1,-0.999089534080424
6.36632511e+02,5.59999916,-9.75389668e-10,3.66695281,1.83558305,-2.84509848,7.47426482e-01,4.16806609e-05,5.78336911,-3.77967377,-1,-0.9990253572849825
6.65187447e+02,5.59999913,-9.53747969e-10,3.66736562,1.83171905,-2.84509848,7.47426482e-01,4.16806609e-05,5.78717433,-3.76826012,-1,-0.9989581054474289
6.94948116e+02,5.59999911,-9.31873709e-10,3.66782253,1.82777745,-2.84509848,7.47426482e-01,4.16806609e-05,5.79105540,-3.75661973,-1,-0.998888013899086
7.26022111e+02,5.59999908,-9.09986637e-10,3.66825605,1.82375716,-2.84509848,7.47426482e-01,4.16806609e-05,5.79501455,-3.74474323,-1,-0.9988148292397373
7.58531544e+02,5.59999905,-8.88470423e-10,3.66869687,1.81965721,-2.84509848,7.47426482e-01,4.16806609e-05,5.79905238,-3.73263008,-1,-0.9987382638743982
7.92424031e+02,5.59999902,-8.66818898e-10,3.66915474,1.81548109,-2.84509848,7.47426482e-01,4.16806610e-05,5.80316487,-3.72029432,-1,-0.9986584411764937
8.27812499e+02,5.59999899,-8.45486472e-10,3.66967236,1.81122138,-2.84509848,7.47426482e-01,4.16806610e-05,5.80735876,-3.70771369,-1,-0.9985750951833103
8.64820289e+02,5.59999896,-8.23809486e-10,3.67013441,1.80688295,-2.84509848,7.47426482e-01,4.16806610e-05,5.81163155,-3.69489729,-1,-0.9984879354053547
9.03453973e+02,5.59999893,-8.02855006e-10,3.67060256,1.80246933,-2.84509848,7.47426482e-01,4.16806610e-05,5.81597851,-3.68185910,-1,-0.9983969463644244
9.43787693e+02,5.59999890,-7.82027617e-10,3.67112101,1.79797838,-2.84509848,7.47426482e-01,4.16806610e-05,5.82040055,-3.66859680,-1,-0.9983019534432226
9.85880825e+02,5.59999886,-7.61246146e-10,3.67161585,1.79341425,-2.84509848,7.47426482e-01,4.16806610e-05,5.82489507,-3.65511721,-1,-0.9982028168009487
1.02983656e+03,5.59999883,-7.40695707e-10,3.67213526,1.78877410,-2.84509848,7.47426482e-01,4.16806610e-05,5.82946419,-3.64141231,-1,-0.9980992934048616
1.07572924e+03,5.59999880,-7.20428386e-10,3.67263766,1.78406224,-2.84509848,7.47426482e-01,4.16806610e-05,5.83410435,-3.62749243,-1,-0.9979912081666296
1.12366240e+03,5.59999876,-7.00491541e-10,3.67319577,1.77927407,-2.84509848,7.47426482e-01,4.16806610e-05,5.83881876,-3.61334936,-1,-0.9978783172433318
1.17372271e+03,5.59999873,-6.80717854e-10,3.67374832,1.77441306,-2.84509848,7.47426482e-01,4.16806610e-05,5.84360583,-3.59898636,-1,-0.9977604165120536
1.22597944e+03,5.59999869,-6.61313840e-10,3.67426917,1.76948436,-2.84509848,7.47426482e-01,4.16806610e-05,5.84846074,-3.58442427,-1,-0.9976373428299048
1.28054375e+03,5.59999866,-6.41923362e-10,3.67479737,1.76448729,-2.84509848,7.47426482e-01,4.16806610e-05,5.85338300,-3.56965748,-1,-0.9975088343957642
1.33752759e+03,5.59999862,-6.23012464e-10,3.67535961,1.75942010,-2.84509848,7.47426482e-01,4.16806610e-05,5.85837388,-3.55468476,-1,-0.9973746275479233
1.39704543e+03,5.59999859,-6.04459189e-10,3.67597789,1.75428217,-2.84509848,7.47426482e-01,4.16806610e-05,5.86343393,-3.53950756,-1,-0.9972344526896354
1.45914950e+03,5.59999855,-5.86341395e-10,3.67654425,1.74908096,-2.84509848,7.47426482e-01,4.16806610e-05,5.86855706,-3.52413774,-1,-0.9970881868101721
1.52398029e+03,5.59999851,-5.68305808e-10,3.67712467,1.74381507,-2.84509848,7.47426482e-01,4.16806610e-05,5.87374384,-3.50857787,-1,-0.9969354990311642
1.59163790e+03,5.59999848,-5.50921121e-10,3.67770699,1.73848709,-2.84509848,7.47426482e-01,4.16806610e-05,5.87899233,-3.49283330,-1,-0.9967761535997129
1.66224630e+03,5.59999844,-5.33753805e-10,3.67828404,1.73309957,-2.84509848,7.47426482e-01,4.16806610e-05,5.88429972,-3.47690853,-1,-0.9966098585449203
1.73607756e+03,5.59999840,-5.16670597e-10,3.67889607,1.72765021,-2.84509848,7.47426482e-01,4.16806611e-05,5.88966817,-3.46080077,-1,-0.9964359730946466
1.81311315e+03,5.59999836,-5.00186181e-10,3.67950359,1.72213917,-2.84509848,7.47426482e-01,4.16806612e-05,5.89509782,-3.44451016,-1,-0.9962545408902626
1.89343386e+03,5.59999832,-4.83496972e-10,3.68009173,1.71657163,-2.84509848,7.47426482e-01,4.16806612e-05,5.90058361,-3.42805152,-1,-0.9960653716572756
1.97743568e+03,5.59999828,-4.67485506e-10,3.68076716,1.71093831,-2.84509848,7.47426482e-01,4.16806616e-05,5.90613308,-3.41140120,-1,-0.995867532770407
2.06501282e+03,5.59999824,-4.52064035e-10,3.68137149,1.70525329,-2.84509851,7.47426484e-01,4.16806620e-05,5.91171750,-3.39457275,-1,-0.9956612733834944
2.15648236e+03,5.59999820,-4.37477248e-10,3.68200607,1.69951612,-2.84509866,7.47426493e-01,4.16806638e-05,5.91729902,-3.37752651,-1,-0.9954458467180246
2.25197147e+03,5.59999816,-4.23035893e-10,3.68263243,1.69373878,-2.84509868,7.47426495e-01,4.16806646e-05,5.92278872,-3.36042498,-1,-0.9952209532665437
2.35163356e+03,5.59999812,-4.08800292e-10,3.68324839,1.68790707,-2.84509868,7.47426495e-01,4.16806660e-05,5.92831910,-3.34292897,-1,-0.9949862317218365
2.45562124e+03,5.59999808,-3.94896987e-10,3.68392027,1.68202343,-2.84509884,7.47426504e-01,4.16806665e-05,5.93387398,-3.32521569,-1,-0.9947413226608275
2.56427496e+03,5.59999804,-3.81237531e-10,3.68455424,1.67609536,-2.84509877,7.47426500e-01,4.16806692e-05,5.93945145,-3.30730871,-1,-0.9944854242645911
2.67750626e+03,5.59999799,-3.68052068e-10,3.68517994,1.67012691,-2.84509875,7.47426499e-01,4.16806717e-05,5.94503823,-3.28919947,-1,-0.994218744871803
2.79598732e+03,5.59999795,-3.55242154e-10,3.68589565,1.66410637,-2.84509880,7.47426502e-01,4.16806739e-05,5.95063571,-3.27083765,-1,-0.9939397013817283
2.91937756e+03,5.59999791,-3.42849005e-10,3.68653552,1.65805235,-2.84509870,7.47426495e-01,4.16806784e-05,5.95623456,-3.25227698,-1,-0.993649095919465
3.04844595e+03,5.59999787,-3.30764809e-10,3.68724855,1.65195360,-2.84509877,7.47426499e-01,4.16806818e-05,5.96184119,-3.23348259,-1,-0.9933451174270046
3.18289805e+03,5.59999782,-3.18987594e-10,3.68789724,1.64582458,-2.84509869,7.47426495e-01,4.16806869e-05,5.96744968,-3.21449111,-1,-0.993028459361725
3.32343055e+03,5.59999778,-3.07597096e-10,3.68855104,1.63966103,-2.84509864,7.47426491e-01,4.16806926e-05,5.97305815,-3.19526507,-1,-0.9926974808975814
3.46996536e+03,5.59999773,-2.96500522e-10,3.68921327,1.63346942,-2.84509865,7.47426492e-01,4.16806983e-05,5.97867018,-3.17584817,-1,-0.9923523659500968
3.62311062e+03,5.59999769,-2.85840096e-10,3.68994648,1.62723972,-2.84509858,7.47426488e-01,4.16807058e-05,5.98429588,-3.15619768,-1,-0.9919916822438674
3.78286000e+03,5.59999765,-2.75544398e-10,3.69062211,1.62098639,-2.84509854,7.47426485e-01,4.16807137e-05,5.98992404,-3.13633617,-1,-0.9916154446871435
3.94950276e+03,5.59999760,-2.65527287e-10,3.69128488,1.61471204,-2.84509853,7.47426485e-01,4.16807225e-05,5.99555774,-3.11627917,-1,-0.9912229720223473
4.12362342e+03,5.59999756,-2.55797691e-10,3.69196024,1.60841619,-2.84509853,7.47426484e-01,4.16807323e-05,6.00120038,-3.09601392,-1,-0.9908128876032807
4.30516598e+03,5.59999751,-2.46316408e-10,3.69262645,1.60210189,-2.84509852,7.47426484e-01,4.16807432e-05,6.00685088,-3.07554985,-1,-0.9903853233196772
4.49494854e+03,5.59999746,-2.37345430e-10,3.69337297,1.59576205,-2.84509881,7.47426501e-01,4.16807526e-05,6.01251618,-3.05484803,-1,-0.9899383524038388
4.69288802e+03,5.59999742,-2.28654773e-10,3.69404659,1.58941197,-2.84509851,7.47426483e-01,4.16807693e-05,6.01818772,-3.03395155,-1,-0.9894721705236061
4.89941825e+03,5.59999737,-2.20168998e-10,3.69476205,1.58304548,-2.84509850,7.47426483e-01,4.16807846e-05,6.02387283,-3.01284037,-1,-0.988985755933923
5.11513130e+03,5.59999733,-2.12004040e-10,3.69543659,1.57667296,-2.84509849,7.47426482e-01,4.16808015e-05,6.02956597,-2.99153554,-1,-0.9884777142070289
5.34026972e+03,5.59999728,-2.04110690e-10,3.69612009,1.57029185,-2.84509849,7.47426482e-01,4.16808203e-05,6.03527597,-2.97002106,-1,-0.987947474095515
5.57532615e+03,5.59999723,-1.96550932e-10,3.69687136,1.56389879,-2.84509957,7.47426552e-01,4.16808283e-05,6.04100635,-2.94828130,-1,-0.9873938753465531
5.82050589e+03,5.59999719,-1.89351500e-10,3.69757029,1.55750426,-2.84509849,7.47426482e-01,4.16808640e-05,6.04675475,-2.92635151,-1,-0.9868164344429589
6.07668686e+03,5.59999714,-1.82343919e-10,3.69827176,1.55111046,-2.84509848,7.47426482e-01,4.16808893e-05,6.05252141,-2.90421877,-1,-0.986213083730537
6.34397832e+03,5.59999709,-1.75533723e-10,3.69895254,1.54472064,-2.84509848,7.47426482e-01,4.16809170e-05,6.05830401,-2.88188833,-1,-0.9855835658829962
6.62303590e+03,5.59999704,-1.69056659e-10,3.69967031,1.53833404,-2.84509848,7.47426482e-01,4.16809474e-05,6.06411100,-2.85935273,-1,-0.9849263367777285
6.91418064e+03,5.59999700,-1.62836158e-10,3.70035670,1.53195556,-2.84509848,7.47426482e-01,4.16809806e-05,6.06994293,-2.83660925,-1,-0.984240640309732
7.21822371e+03,5.59999695,-1.56855651e-10,3.70104384,1.52559190,-2.84509848,7.47426482e-01,4.16810168e-05,6.07579961,-2.81368087,-1,-0.9835245660326635
7.53583793e+03,5.59999690,-1.51073997e-10,3.70177254,1.51923891,-2.84509968,7.47426551e-01,4.16810439e-05,6.08169068,-2.79054320,-1,-0.9827765293384768
7.86720521e+03,5.59999685,-1.45552700e-10,3.70246998,1.51290416,-2.84509848,7.47426481e-01,4.16810985e-05,6.08761434,-2.76721702,-1,-0.9819961017975033
8.21300748e+03,5.59999680,-1.40224349e-10,3.70316203,1.50659037,-2.84509848,7.47426481e-01,4.16811442e-05,6.09357458,-2.74370404,-1,-0.9811816773460632
8.57424932e+03,5.59999675,-1.35122775e-10,3.70387167,1.50029817,-2.84509848,7.47426481e-01,4.16811934e-05,6.09957727,-2.71999222,-1,-0.9803308900236457
8.95159341e+03,5.59999670,-1.30258034e-10,3.70461090,1.49403109,-2.84510007,7.47426572e-01,4.16812307e-05,6.10562565,-2.69608824,-1,-0.9794421791036672
9.34528947e+03,5.59999665,-1.25574967e-10,3.70530856,1.48779668,-2.84509848,7.47426481e-01,4.16813022e-05,6.11172108,-2.67201645,-1,-0.9785149564521224
9.75635745e+03,5.59999660,-1.21100866e-10,3.70604733,1.48159347,-2.84509848,7.47426481e-01,4.16813617e-05,6.11787231,-2.64776290,-1,-0.9775468199094789
1.01855118e+04,5.59999655,-1.16808721e-10,3.70673986,1.47543440,-2.84509848,7.47426481e-01,4.16814245e-05,6.12408105,-2.62336385,-1,-0.9765360868218047
1.06338736e+04,5.59999650,-1.12678464e-10,3.70743734,1.46932207,-2.84509847,7.47426481e-01,4.16814906e-05,6.13035017,-2.59881577,-1,-0.9754801168508394
1.11021765e+04,5.59999645,-1.08757419e-10,3.70819748,1.46325449,-2.84510038,7.47426552e-01,4.16815490e-05,6.13669089,-2.57412428,-1,-0.9743771821233135
1.15908863e+04,5.59999640,-1.05037971e-10,3.70890137,1.45724428,-2.84509847,7.47426481e-01,4.16816315e-05,6.14310316,-2.54933070,-1,-0.9732261855992642
1.21012739e+04,5.59999634,-1.01469595e-10,3.70964643,1.45129168,-2.84509847,7.47426481e-01,4.16817057e-05,6.14960182,-2.52444018,-1,-0.97202413408829
1.26346056e+04,5.59999629,-9.80564460e-11,3.71035540,1.44541255,-2.84509847,7.47426481e-01,4.16817819e-05,6.15620867,-2.49944626,-1,-0.9707680452337892
1.31917220e+04,5.59999624,-9.48150965e-11,3.71106107,1.43961096,-2.84509847,7.47426481e-01,4.16818599e-05,6.16287151,-2.47446895,-1,-0.969455939276653
1.37735883e+04,5.59999618,-9.17203957e-11,3.71178465,1.43389476,-2.84509847,7.47426481e-01,4.16819389e-05,6.16963295,-2.44951417,-1,-0.9680855430031151
1.43811981e+04,5.59999613,-8.87964271e-11,3.71249038,1.42827315,-2.84509847,7.47426481e-01,4.16820185e-05,6.17647980,-2.42462384,-1,-0.9666545163124731
1.50164401e+04,5.59999607,-8.60239431e-11,3.71321515,1.42275606,-2.84509847,7.47426481e-01,4.16820978e-05,6.18341450,-2.39984049,-1,-0.9651584109879429
1.56803212e+04,5.59999602,-8.34018261e-11,3.71392431,1.41735335,-2.84509847,7.47426481e-01,4.16821765e-05,6.19043764,-2.37515636,-1,-0.96359485560501
1.63737167e+04,5.59999596,-8.09228313e-11,3.71462657,1.41207374,-2.84509847,7.47426481e-01,4.16822538e-05,6.19750367,-2.35064018,-1,-0.9619617886800343
1.70983991e+04,5.59999590,-7.85970765e-11,3.71536957,1.40692212,-2.84509928,7.47426502e-01,4.16823266e-05,6.20456833,-2.32630800,-1,-0.9602550356674291
1.78563012e+04,5.59999585,-7.64088436e-11,3.71606386,1.40191775,-2.84509847,7.47426481e-01,4.16824015e-05,6.21160287,-2.30205268,-1,-0.9584700444872447
1.86477751e+04,5.59999579,-7.43409786e-11,3.71676993,1.39705558,-2.84509847,7.47426481e-01,4.16824708e-05,6.21849751,-2.27783274,-1,-0.956605985882781
1.94752192e+04,5.59999573,-7.24095827e-11,3.71745623,1.39235217,-2.84509847,7.47426481e-01,4.16825362e-05,6.22519060,-2.25356724,-1,-0.9546572112051602
2.03398624e+04,5.59999566,-7.05955742e-11,3.71814378,1.38780281,-2.84509847,7.47426481e-01,4.16825978e-05,6.23164211,-2.22900776,-1,-0.9526208261812812
2.12430217e+04,5.59999560,-6.88982438e-11,3.71884214,1.38340160,-2.84509847,7.47426481e-01,4.16826550e-05,6.23785259,-2.20396084,-1,-0.9504937290472298
2.21871184e+04,5.59999554,-6.73425611e-11,3.71959347,1.37915233,-2.84509847,7.47426481e-01,4.16827075e-05,6.24378366,-2.17850062,-1,-0.9482702172206481
2.31728579e+04,5.59999547,-6.58649518e-11,3.72029303,1.37506593,-2.84509848,7.47426481e-01,4.16827555e-05,6.24970040,-2.15231153,-1,-0.9459486293619268
2.42026572e+04,5.59999541,-6.44977791e-11,3.72099976,1.37115772,-2.84509848,7.47426481e-01,4.16827985e-05,6.25567088,-2.12545162,-1,-0.9435232730159554
2.52785611e+04,5.59999534,-6.32496744e-11,3.72173698,1.36744618,-2.84509848,7.47426481e-01,4.16828349e-05,6.26180635,-2.09790723,-1,-0.940989332323317
2.64019016e+04,5.59999527,-6.21211133e-11,3.72246554,1.36395897,-2.84509848,7.47426481e-01,4.16828676e-05,6.26818789,-2.06971559,-1,-0.9383436701924905
2.75762132e+04,5.59999520,-6.11219903e-11,3.72320606,1.36075075,-2.84509848,7.47426482e-01,4.16828958e-05,6.27488449,-2.04085006,-1,-0.9355779622616269
2.88015816e+04,5.59999512,-6.02701170e-11,3.72396324,1.35786467,-2.84509848,7.47426482e-01,4.16829196e-05,6.28191784,-2.01135551,-1,-0.9326920066923302
3.00831101e+04,5.59999504,-5.96006843e-11,3.72474106,1.35538543,-2.84509848,7.47426482e-01,4.16829385e-05,6.28932242,-1.98117196,-1,-0.9296737843260708
3.14189286e+04,5.59999497,-5.91351047e-11,3.72558149,1.35335268,-2.84509848,7.47426482e-01,4.16829533e-05,6.29708497,-1.95029150,-1,-0.9265276995734001
3.28150605e+04,5.59999488,-5.88953260e-11,3.72642392,1.35189844,-2.84509848,7.47426482e-01,4.16829641e-05,6.30533378,-1.91841397,-1,-0.9232395662803612
3.42688177e+04,5.59999480,-5.89192711e-11,3.72729558,1.35108912,-2.84509848,7.47426482e-01,4.16829717e-05,6.31394724,-1.88577538,-1,-0.9198157153896861
3.57845065e+04,5.59999471,-5.92844126e-11,3.72821194,1.35108445,-2.84509848,7.47426482e-01,4.16829764e-05,6.32293284,-1.85247022,-1,-0.9162460048163755
3.73591985e+04,5.59999461,-6.00578471e-11,3.72917680,1.35200780,-2.84509848,7.47426482e-01,4.16829792e-05,6.33235043,-1.81840073,-1,-0.9125373314514291
3.89907206e+04,5.59999451,-6.13404154e-11,3.73020529,1.35400945,-2.84509848,7.47426483e-01,4.16829806e-05,6.34221292,-1.78353525,-1,-0.9086948133230641
4.06739619e+04,5.59999441,-6.32425856e-11,3.73131136,1.35723677,-2.84509848,7.47426483e-01,4.16829812e-05,6.35252192,-1.74792899,-1,-0.9047304874891311
4.24023167e+04,5.59999430,-6.58992557e-11,3.73251439,1.36181679,-2.84509848,7.47426483e-01,4.16829814e-05,6.36326288,-1.71164797,-1,-0.9006599115212991
4.41663413e+04,5.59999418,-6.93975904e-11,3.73383547,1.36770351,-2.84509848,7.47426484e-01,4.16829814e-05,6.37441600,-1.67480676,-1,-0.8965053269745241
4.59613738e+04,5.59999405,-7.37848028e-11,3.73532020,1.37464826,-2.84509848,7.47426484e-01,4.16829813e-05,6.38598928,-1.63738579,-1,-0.8922777134336138
4.77933230e+04,5.59999391,-7.89233617e-11,3.73701887,1.38205169,-2.84509848,7.47426485e-01,4.16829813e-05,6.39802583,-1.59925840,-1,-0.8879631546475307
4.96849108e+04,5.59999375,-8.44511347e-11,3.73898687,1.38899601,-2.84509848,7.47426485e-01,4.16829812e-05,6.41066248,-1.55987954,-1,-0.8835081365923698
5.16648798e+04,5.59999358,-8.97873736e-11,3.74128568,1.39448074,-2.84509848,7.47426486e-01,4.16829811e-05,6.42406557,-1.51869563,-1,-0.8788449654492386
5.37484879e+04,5.59999339,-9.44157462e-11,3.74397832,1.39783002,-2.84509849,7.47426488e-01,4.16829809e-05,6.43826826,-1.47549201,-1,-0.8739377062115867
5.59322236e+04,5.59999317,-9.80838129e-11,3.74712062,1.39885786,-2.84509849,7.47426490e-01,4.16829807e-05,6.45313736,-1.43046365,-1,-0.8687946290722652
5.82039870e+04,5.59999295,-1.00734445e-10,3.75078927,1.39757244,-2.84509850,7.47426493e-01,4.16829803e-05,6.46849931,-1.38396804,-1,-0.863444231398917
6.05512191e+04,5.59999271,-1.02392944e-10,3.75502135,1.39407962,-2.84509851,7.47426498e-01,4.16829798e-05,6.48420371,-1.33637243,-1,-0.8579160918194836
