star_age,star_mass,star_mdot,log_Teff,log_R,log_surf_z,surface_h1,surface_he3,log_center_T,log_center_Rho,phase,x
1.21421063e+02,3.39999102e+01,-7.20226774e-07,3.65998974,2.50616321,-2.84509856,7.47426486e-01,4.16806605e-05,5.82210812,-4.68621274,-1,-1.0
1.25840786e+02,3.39999070e+01,-7.20252949e-07,3.66009600,2.50610110,-2.84509856,7.47426486e-01,4.16806605e-05,5.82396905,-4.67842716,-1,-0.9998296361314019
1.30260510e+02,3.39999038e+01,-7.20279124e-07,3.66020227,2.50603898,-2.84509856,7.47426486e-01,4.16806605e-05,5.82582998,-4.67064157,-1,-0.9996592722242574
1.34680233e+02,3.39999006e+01,-7.20305300e-07,3.66030854,2.50597687,-2.84509856,7.47426486e-01,4.16806605e-05,5.82769091,-4.66285598,-1,-0.9994889083556592
1.39528325e+02,3.39998971e+01,-7.20876673e-07,3.66042122,2.50601405,-2.84509856,7.47426487e-01,4.16806605e-05,5.82973535,-4.65438587,-1,-0.999302032456776
1.44425944e+02,3.39998936e+01,-7.21511082e-07,3.66053465,2.50606271,-2.84509856,7.47426487e-01,4.16806605e-05,5.83180101,-4.64583662,-1,-0.9991132474764142
1.49333214e+02,3.39998900e+01,-7.22160662e-07,3.66064822,2.50611416,-2.84509856,7.47426487e-01,4.16806605e-05,5.83387084,-4.63727216,-1,-0.9989240904859296
1.54720307e+02,3.39998861e+01,-7.23564420e-07,3.66076905,2.50630474,-2.84509856,7.47426487e-01,4.16806605e-05,5.83614824,-4.62795162,-1,-0.9987164381050047
1.60107399e+02,3.39998822e+01,-7.24968178e-07,3.66088987,2.50649533,-2.84509856,7.47426487e-01,4.16806605e-05,5.83842564,-4.61863107,-1,-0.9985087857626261
1.65662719e+02,3.39998782e+01,-7.26714669e-07,3.66101310,2.50674541,-2.84509856,7.47426487e-01,4.16806605e-05,5.84077813,-4.60904470,-1,-0.9982946488571005
1.71545964e+02,3.39998739e+01,-7.29129247e-07,3.66114099,2.50711150,-2.84509856,7.47426487e-01,4.16806605e-05,5.84327698,-4.59894013,-1,-0.9980678716635726
1.77429209e+02,3.39998696e+01,-7.31543826e-07,3.66126888,2.50747758,-2.84509856,7.47426487e-01,4.16806605e-05,5.84577584,-4.58883557,-1,-0.9978410944700447
1.83740411e+02,3.39998649e+01,-7.35062252e-07,3.66140297,2.50802559,-2.84509856,7.47426487e-01,4.16806605e-05,5.84846904,-4.57805651,-1,-0.9975978211272979
1.90117244e+02,3.39998602e+01,-7.38749963e-07,3.66153801,2.50860150,-2.84509856,7.47426487e-01,4.16806605e-05,5.85119204,-4.56717401,-1,-0.997352017953822
1.96789238e+02,3.39998552e+01,-7.43379619e-07,3.66167666,2.50932574,-2.84509856,7.47426487e-01,4.16806605e-05,5.85405284,-4.55582711,-1,-0.9970948374225752
2.03649116e+02,3.39998500e+01,-7.48608867e-07,3.66181760,2.51014441,-2.84509856,7.47426487e-01,4.16806605e-05,5.85700135,-4.54418459,-1,-0.9968304146625535
2.10770709e+02,3.39998446e+01,-7.54873740e-07,3.66196151,2.51111675,-2.84509856,7.47426487e-01,4.16806605e-05,5.86007511,-4.53212691,-1,-0.9965559037635534
2.18096294e+02,3.39998390e+01,-7.61945822e-07,3.66210772,2.51220888,-2.84509856,7.47426487e-01,4.16806605e-05,5.86324650,-4.51974564,-1,-0.9962735297323426
2.25737645e+02,3.39998331e+01,-7.70539725e-07,3.66225751,2.51351564,-2.84509856,7.47426487e-01,4.16806605e-05,5.86657466,-4.50686435,-1,-0.9959789840973161
2.33527925e+02,3.39998270e+01,-7.79871540e-07,3.66240894,2.51492582,-2.84509856,7.47426487e-01,4.16806605e-05,5.86997708,-4.49374660,-1,-0.9956786978037491
2.41711748e+02,3.39998205e+01,-7.91455410e-07,3.66256378,2.51664214,-2.84509856,7.47426487e-01,4.16806605e-05,5.87358037,-4.47999470,-1,-0.9953632418925522
2.50113177e+02,3.39998137e+01,-8.04502522e-07,3.66272030,2.51855124,-2.84509856,7.47426487e-01,4.16806605e-05,5.87729822,-4.46589010,-1,-0.9950393980801249
2.58761726e+02,3.39998066e+01,-8.19303533e-07,3.66287893,2.52068848,-2.84509856,7.47426487e-01,4.16806605e-05,5.88114735,-4.45138386,-1,-0.9947060287116372
2.67695177e+02,3.39997992e+01,-8.36364788e-07,3.66304058,2.52311250,-2.84509856,7.47426487e-01,4.16806605e-05,5.88515090,-4.43641177,-1,-0.9943616774316378
2.76958398e+02,3.39997912e+01,-8.56535402e-07,3.66320789,2.52591202,-2.84509856,7.47426487e-01,4.16806605e-05,5.88934107,-4.42089323,-1,-0.9940046147457546
2.86493855e+02,3.39997828e+01,-8.79758071e-07,3.66338169,2.52906049,-2.84509856,7.47426486e-01,4.16806605e-05,5.89369133,-4.40490924,-1,-0.993637058375509
2.96308483e+02,3.39997739e+01,-9.06609810e-07,3.66356291,2.53260693,-2.84509856,7.47426486e-01,4.16806605e-05,5.89821170,-4.38844602,-1,-0.9932587410024672
3.06403222e+02,3.39997645e+01,-9.37799647e-07,3.66375332,2.53661525,-2.84509855,7.47426486e-01,4.16806605e-05,5.90291107,-4.37148963,-1,-0.9928696263931289
3.16792157e+02,3.39997544e+01,-9.74914882e-07,3.66395732,2.54121931,-2.84509855,7.47426486e-01,4.16806606e-05,5.90781084,-4.35399743,-1,-0.9924691716231773
3.27413414e+02,3.39997436e+01,-1.01867661e-06,3.66418652,2.54646704,-2.84509855,7.47426486e-01,4.16806606e-05,5.91288603,-4.33606139,-1,-0.9920597617049776
3.38188062e+02,3.39997322e+01,-1.07120432e-06,3.66448025,2.55262007,-2.84509855,7.47426486e-01,4.16806606e-05,5.91811206,-4.31778649,-1,-0.9916444391347479
3.48944750e+02,3.39997201e+01,-1.14101778e-06,3.66494010,2.56018985,-2.84509854,7.47426485e-01,4.16806606e-05,5.92343863,-4.29940461,-1,-0.9912298088556595
3.59505729e+02,3.39997073e+01,-1.23524397e-06,3.66565641,2.56898725,-2.84509853,7.47426485e-01,4.16806607e-05,5.92878350,-4.28119798,-1,-0.9908227224299663
3.69891920e+02,3.39996936e+01,-1.35610992e-06,3.66667982,2.57843893,-2.84509853,7.47426485e-01,4.16806607e-05,5.93417694,-4.26307641,-1,-0.9904223734309997
3.80476894e+02,3.39996782e+01,-1.49310783e-06,3.66797398,2.58748301,-2.84509853,7.47426485e-01,4.16806607e-05,5.93981713,-4.24438293,-1,-0.9900143620873814
3.91724937e+02,3.39996604e+01,-1.62685626e-06,3.66941376,2.59519891,-2.84509853,7.47426485e-01,4.16806607e-05,5.94596181,-4.22427644,-1,-0.9895807919021823
4.03761373e+02,3.39996398e+01,-1.74807595e-06,3.67091614,2.60142135,-2.84509852,7.47426484e-01,4.16806607e-05,5.95266781,-4.20258511,-1,-0.9891168321017391
4.16389554e+02,3.39996167e+01,-1.86221629e-06,3.67253390,2.60657035,-2.84509852,7.47426484e-01,4.16806608e-05,5.95981586,-4.17969023,-1,-0.9886300627344013
4.29471199e+02,3.39995913e+01,-1.97584781e-06,3.67434007,2.61091850,-2.84509851,7.47426484e-01,4.16806608e-05,5.96732621,-4.15586638,-1,-0.9881258140179483
4.42951406e+02,3.39995636e+01,-2.09119899e-06,3.67638135,2.61456442,-2.84509851,7.47426484e-01,4.16806608e-05,5.97515936,-4.13123928,-1,-0.9876062022200994
4.56777516e+02,3.39995336e+01,-2.20882762e-06,3.67869113,2.61754360,-2.84509851,7.47426484e-01,4.16806608e-05,5.98328098,-4.10591504,-1,-0.9870732571492741
4.70938289e+02,3.39995011e+01,-2.32802008e-06,3.68129831,2.61983877,-2.84509850,7.47426483e-01,4.16806608e-05,5.99171291,-4.07988626,-1,-0.9865274120656295
4.85414475e+02,3.39994662e+01,-2.44972806e-06,3.68416300,2.62157014,-2.84509850,7.47426483e-01,4.16806608e-05,6.00042100,-4.05322535,-1,-0.9859694089850051
5.00208800e+02,3.39994288e+01,-2.57417783e-06,3.68724442,2.62285368,-2.84509850,7.47426483e-01,4.16806608e-05,6.00940349,-4.02593495,-1,-0.9853991428302487
5.15318920e+02,3.39993886e+01,-2.70275533e-06,3.69052214,2.62375106,-2.84509850,7.47426483e-01,4.16806609e-05,6.01865653,-3.99803050,-1,-0.9848167039538344
5.30748727e+02,3.39993455e+01,-2.83642337e-06,3.69397624,2.62431150,-2.84509850,7.47426483e-01,4.16806609e-05,6.02817109,-3.96954731,-1,-0.9842219423336507
5.46498352e+02,3.39992994e+01,-2.97505032e-06,3.69760373,2.62454304,-2.84509850,7.47426483e-01,4.16806609e-05,6.03796258,-3.94042999,-1,-0.9836148529201353
5.62558417e+02,3.39992502e+01,-3.11855854e-06,3.70139591,2.62445852,-2.84509850,7.47426483e-01,4.16806609e-05,6.04801029,-3.91074410,-1,-0.9829957972002773
5.78934721e+02,3.39991976e+01,-3.26693388e-06,3.70535595,2.62404305,-2.84509849,7.47426483e-01,4.16806609e-05,6.05831416,-3.88049606,-1,-0.9823645516442143
5.95620545e+02,3.39991414e+01,-3.42013985e-06,3.70948034,2.62328984,-2.84509849,7.47426483e-01,4.16806609e-05,6.06885853,-3.84973850,-1,-0.9817213752443837
6.12610493e+02,3.39990817e+01,-3.57768342e-06,3.71377658,2.62216714,-2.84509850,7.47426483e-01,4.16806609e-05,6.07965119,-3.81845311,-1,-0.9810664759964984
6.29902948e+02,3.39990181e+01,-3.73844208e-06,3.71824886,2.62064541,-2.84509849,7.47426483e-01,4.16806609e-05,6.09066391,-3.78669622,-1,-0.9803999162298886
6.47484046e+02,3.39989506e+01,-3.90147307e-06,3.72290625,2.61868527,-2.84509850,7.47426483e-01,4.16806609e-05,6.10190068,-3.75448372,-1,-0.9797222303501438
6.65343737e+02,3.39988791e+01,-4.06567008e-06,3.72775478,2.61624891,-2.84509849,7.47426482e-01,4.16806609e-05,6.11334119,-3.72189716,-1,-0.9790338057473513
6.83474328e+02,3.39988036e+01,-4.22863912e-06,3.73280789,2.61327452,-2.84509849,7.47426482e-01,4.16806609e-05,6.12496213,-3.68897802,-1,-0.9783349389580228
7.01855594e+02,3.39987240e+01,-4.38936742e-06,3.73807357,2.60971148,-2.84509849,7.47426482e-01,4.16806609e-05,6.13673831,-3.65578042,-1,-0.977626409580618
7.20467743e+02,3.39986406e+01,-4.54447161e-06,3.74356483,2.60549632,-2.84509849,7.47426482e-01,4.16806609e-05,6.14864270,-3.62238476,-1,-0.9769089805230582
7.39290692e+02,3.39985534e+01,-4.69172280e-06,3.74929089,2.60057035,-2.84509849,7.47426482e-01,4.16806609e-05,6.16063712,-3.58890819,-1,-0.9761834259102316
7.58291833e+02,3.39984627e+01,-4.82810811e-06,3.75526348,2.59486638,-2.84509849,7.47426482e-01,4.16806609e-05,6.17270182,-3.55539568,-1,-0.9754510026591501
7.77443011e+02,3.39983688e+01,-4.95018393e-06,3.76148789,2.58833300,-2.84509849,7.47426483e-01,4.16806609e-05,6.18479092,-3.52194304,-1,-0.974712796040253
7.96705689e+02,3.39982723e+01,-5.05548784e-06,3.76796970,2.58092028,-2.84509849,7.47426483e-01,4.16806609e-05,6.19686718,-3.48861985,-1,-0.9739702915114306
8.16046352e+02,3.39981735e+01,-5.14100229e-06,3.77470813,2.57259348,-2.84509849,7.47426483e-01,4.16806609e-05,6.20888242,-3.45555049,-1,-0.9732247809511684
8.35428956e+02,3.39980731e+01,-5.20426938e-06,3.78169980,2.56332944,-2.84509849,7.47426483e-01,4.16806609e-05,6.22081207,-3.42280272,-1,-0.9724776537214876
8.54840219e+02,3.39979716e+01,-5.24404900e-06,3.78892814,2.55314000,-2.84509850,7.47426483e-01,4.16806608e-05,6.23261681,-3.39045403,-1,-0.9717294217940441
8.74263969e+02,3.39978695e+01,-5.25933512e-06,3.79637845,2.54203958,-2.84509850,7.47426484e-01,4.16806608e-05,6.24427159,-3.35855630,-1,-0.9709807085392352
8.93677485e+02,3.39977675e+01,-5.25059683e-06,3.80403364,2.53006487,-2.84509852,7.47426485e-01,4.16806607e-05,6.25577713,-3.32709608,-1,-0.9702323897670289
9.13105604e+02,3.39976658e+01,-5.21817632e-06,3.81187033,2.51725111,-2.84509856,7.47426487e-01,4.16806604e-05,6.26709243,-3.29618765,-1,-0.9694835081035342
9.32565037e+02,3.39975649e+01,-5.16344968e-06,3.81986165,2.50366961,-2.84509853,7.47426485e-01,4.16806606e-05,6.27824408,-3.26575337,-1,-0.9687334194019104
9.52089197e+02,3.39974649e+01,-5.08900296e-06,3.82798152,2.48939982,-2.84509849,7.47426484e-01,4.16806608e-05,6.28923884,-3.23575737,-1,-0.9679808357153921
9.71717779e+02,3.39973660e+01,-4.99715236e-06,3.83620565,2.47451557,-2.84509849,7.47426483e-01,4.16806608e-05,6.30008439,-3.20615875,-1,-0.9672242269494997
9.91493348e+02,3.39972684e+01,-4.88987330e-06,3.84451510,2.45907585,-2.84509849,7.47426483e-01,4.16806608e-05,6.31077478,-3.17698295,-1,-0.9664619523819374
1.01143989e+03,3.39971723e+01,-4.76999880e-06,3.85289393,2.44314970,-2.84509848,7.47426483e-01,4.16806608e-05,6.32132388,-3.14818339,-1,-0.9656930874416967
1.03160535e+03,3.39970777e+01,-4.63990868e-06,3.86132534,2.42680525,-2.84509847,7.47426483e-01,4.16806608e-05,6.33174329,-3.11974211,-1,-0.9649157840275094
1.05201991e+03,3.39969846e+01,-4.50257710e-06,3.86979711,2.41011235,-2.84509847,7.47426484e-01,4.16806608e-05,6.34205994,-3.09157950,-1,-0.9641288787356328
1.07272822e+03,3.39968932e+01,-4.36014310e-06,3.87829764,2.39312731,-2.84509847,7.47426484e-01,4.16806608e-05,6.35227426,-3.06371345,-1,-0.9633306504747824
1.09377255e+03,3.39968033e+01,-4.21459566e-06,3.88681675,2.37589926,-2.84509848,7.47426484e-01,4.16806607e-05,6.36239449,-3.03613145,-1,-0.9625194698938146
1.11521172e+03,3.39967148e+01,-4.06743319e-06,3.89534337,2.35847044,-2.84509848,7.47426484e-01,4.16806607e-05,6.37242971,-3.00885136,-1,-0.9616930697006955
1.13710747e+03,3.39966278e+01,-3.92005606e-06,3.90386596,2.34088673,-2.84509849,7.47426485e-01,4.16806607e-05,6.38239458,-2.98185027,-1,-0.9608490700482606
1.15951658e+03,3.39965419e+01,-3.77362032e-06,3.91237340,2.32319427,-2.84509849,7.47426484e-01,4.16806608e-05,6.39231802,-2.95505120,-1,-0.9599852822788818
1.18252661e+03,3.39964571e+01,-3.62911101e-06,3.92085274,2.30542686,-2.84509849,7.47426484e-01,4.16806607e-05,6.40220909,-2.92844740,-1,-0.9590983312805139
1.20620234e+03,3.39963733e+01,-3.48702384e-06,3.92929284,2.28761308,-2.84509849,7.47426484e-01,4.16806607e-05,6.41206955,-2.90202385,-1,-0.9581857200253094
1.23062781e+03,3.39962902e+01,-3.34755007e-06,3.93768248,2.26977044,-2.84509849,7.47426484e-01,4.16806607e-05,6.42189632,-2.87575028,-1,-0.9572442090841197
1.25586457e+03,3.39962078e+01,-3.21082082e-06,3.94601187,2.25191348,-2.84509850,7.47426485e-01,4.16806607e-05,6.43167118,-2.84961796,-1,-0.956271425933573
1.28198457e+03,3.39961261e+01,-3.07723059e-06,3.95427182,2.23406323,-2.84509850,7.47426485e-01,4.16806606e-05,6.44138263,-2.82354189,-1,-0.9552645971690138
1.30904350e+03,3.39960451e+01,-2.94679183e-06,3.96245341,2.21623655,-2.84509851,7.47426486e-01,4.16806606e-05,6.45101308,-2.79741621,-1,-0.9542215761482559
1.33711863e+03,3.39959645e+01,-2.81977449e-06,3.97054554,2.19845329,-2.84509850,7.47426487e-01,4.16806605e-05,6.46054477,-2.77113205,-1,-0.9531393844004481
1.36627981e+03,3.39958845e+01,-2.69630624e-06,3.97853810,2.18073535,-2.84509853,7.47426487e-01,4.16806605e-05,6.46997138,-2.74456896,-1,-0.952015329468117
1.39656430e+03,3.39958051e+01,-2.57676757e-06,3.98642659,2.16311084,-2.84509855,7.47426487e-01,4.16806605e-05,6.47932125,-2.71759106,-1,-0.9508479751169681
1.42802918e+03,3.39957263e+01,-2.46170698e-06,3.99420712,2.14561144,-2.84509857,7.47426487e-01,4.16806604e-05,6.48864973,-2.69008472,-1,-0.9496351211254901
1.46072935e+03,3.39956482e+01,-2.32942608e-06,4.00187349,2.12825291,-2.84509860,7.47426491e-01,4.16806601e-05,6.49799323,-2.66209408,-1,-0.9483746513030561
1.49468452e+03,3.39955788e+01,-1.86190017e-06,4.00943035,2.11106966,-2.84509867,7.47426491e-01,4.16806600e-05,6.50742485,-2.63356586,-1,-0.9470658059025392
1.52998444e+03,3.39955229e+01,-1.41865774e-06,4.01687039,2.09408114,-2.84509867,7.47426490e-01,4.16806601e-05,6.51696830,-2.60457513,-1,-0.9457051253955469
1.56662290e+03,3.39954803e+01,-1.01214744e-06,4.02420223,2.07731399,-2.84509883,7.47426490e-01,4.16806601e-05,6.52665886,-2.57507251,-1,-0.9442928491544613
1.60466445e+03,3.39954507e+01,-6.40235977e-07,4.03142312,2.06078848,-2.84509856,7.47426493e-01,4.16806598e-05,6.53648993,-2.54509654,-1,-0.9428264890170793
1.64416449e+03,3.39954338e+01,-3.00524461e-07,4.03853317,2.04453038,-2.84509859,7.47426500e-01,4.16806591e-05,6.54646427,-2.51465403,-1,-0.9413039095196352
1.68515790e+03,3.39954281e+01,-9.63273125e-08,4.04553748,2.02856791,-2.84509864,7.47426511e-01,4.16806579e-05,6.55659095,-2.48372449,-1,-0.9397237661679747
1.72770807e+03,3.39954240e+01,-9.61265746e-08,4.05243376,2.01292053,-2.84509866,7.47426527e-01,4.16806562e-05,6.56684962,-2.45237301,-1,-0.9380836155135763
1.77183664e+03,3.39954198e+01,-9.60284360e-08,4.05922979,1.99761785,-2.84509877,7.47426549e-01,4.16806540e-05,6.57724429,-2.42058236,-1,-0.936382623414998
1.81754071e+03,3.39954154e+01,-9.60886645e-08,4.06593817,1.98268467,-2.84509876,7.47426562e-01,4.16806526e-05,6.58778231,-2.38834280,-1,-0.9346209016564441
1.86482872e+03,3.39954108e+01,-9.63475138e-08,4.07256857,1.96814128,-2.84509877,7.47426565e-01,4.16806524e-05,6.59845609,-2.35567673,-1,-0.9327981249073336
1.91370720e+03,3.39954061e+01,-9.68436620e-08,4.07913001,1.95400554,-2.84509877,7.47426559e-01,4.16806530e-05,6.60925857,-2.32261985,-1,-0.9309140414604754
1.96418910e+03,3.39954012e+01,-9.76143856e-08,4.08563145,1.94029403,-2.84509875,7.47426551e-01,4.16806537e-05,6.62017645,-2.28922862,-1,-0.9289681521415779
2.01621822e+03,3.39953961e+01,-9.87160302e-08,4.09209101,1.92701150,-2.84509874,7.47426546e-01,4.16806543e-05,6.63121096,-2.25550712,-1,-0.9269626232514284
2.06974109e+03,3.39953907e+01,-1.00177721e-07,4.09852161,1.91414670,-2.84509874,7.47426541e-01,4.16806547e-05,6.64234955,-2.22150251,-1,-0.9248995158594773
2.12466953e+03,3.39953852e+01,-1.02047911e-07,4.10494376,1.90168067,-2.84509873,7.47426536e-01,4.16806553e-05,6.65359377,-2.18721603,-1,-0.9227822289764617
2.18102012e+03,3.39953793e+01,-1.04339293e-07,4.11136036,1.88958434,-2.84509867,7.47426534e-01,4.16806554e-05,6.66491778,-2.15274900,-1,-0.9206101235051031
2.23868685e+03,3.39953732e+01,-1.07058505e-07,4.11778807,1.87781036,-2.84509871,7.47426536e-01,4.16806551e-05,6.67632171,-2.11810582,-1,-0.9183872857362642
2.29763631e+03,3.39953668e+01,-1.10218419e-07,4.12423736,1.86630811,-2.84509874,7.47426531e-01,4.16806557e-05,6.68779974,-2.08331289,-1,-0.9161150035010714
2.35782943e+03,3.39953600e+01,-1.13809414e-07,4.13071617,1.85501844,-2.84509874,7.47426527e-01,4.16806560e-05,6.69934749,-2.04838751,-1,-0.9137947828025812
2.41923069e+03,3.39953529e+01,-1.17811358e-07,4.13723038,1.84388092,-2.84509876,7.47426528e-01,4.16806559e-05,6.71095794,-2.01335359,-1,-0.911427992804565
2.48186896e+03,3.39953453e+01,-1.22215199e-07,4.14378579,1.83284223,-2.84509877,7.47426528e-01,4.16806558e-05,6.72263109,-1.97821539,-1,-0.9090135206759957
2.54571715e+03,3.39953373e+01,-1.26986505e-07,4.15038477,1.82184788,-2.84509882,7.47426524e-01,4.16806561e-05,6.73436205,-1.94298681,-1,-0.906552410635527
2.61078589e+03,3.39953288e+01,-1.32098049e-07,4.15702926,1.81085315,-2.84509878,7.47426527e-01,4.16806556e-05,6.74614772,-1.90767557,-1,-0.9040442529362304
2.67713326e+03,3.39953198e+01,-1.37533075e-07,4.16372191,1.79981780,-2.84509882,7.47426535e-01,4.16806547e-05,6.75798866,-1.87228206,-1,-0.9014868088103171
2.74474495e+03,3.39953103e+01,-1.43254585e-07,4.17046170,1.78871066,-2.84509884,7.47426543e-01,4.16806537e-05,6.76987850,-1.83682095,-1,-0.898880629855016
2.81366366e+03,3.39953001e+01,-1.49239694e-07,4.17724877,1.77750542,-2.84509895,7.47426553e-01,4.16806528e-05,6.78181697,-1.80129415,-1,-0.8962240701442842
2.88393457e+03,3.39952894e+01,-1.55465060e-07,4.18408272,1.76618052,-2.84509894,7.47426561e-01,4.16806520e-05,6.79379884,-1.76570884,-1,-0.8935153881573105
2.95556686e+03,3.39952779e+01,-1.61902394e-07,4.19096130,1.75472310,-2.84509893,7.47426565e-01,4.16806515e-05,6.80581896,-1.73007744,-1,-0.8907542300392687
3.02863883e+03,3.39952658e+01,-1.68533781e-07,4.19788386,1.74311822,-2.84509898,7.47426578e-01,4.16806501e-05,6.81787628,-1.69440150,-1,-0.8879375776166419
3.10315254e+03,3.39952529e+01,-1.75331968e-07,4.20484712,1.73136232,-2.84509902,7.47426585e-01,4.16806495e-05,6.82996418,-1.65869118,-1,-0.8850653514840988
3.17918722e+03,3.39952392e+01,-1.82278736e-07,4.21184949,1.71944752,-2.84509888,7.47426595e-01,4.16806484e-05,6.84208145,-1.62294908,-1,-0.8821344976200843
3.25675206e+03,3.39952248e+01,-1.89357439e-07,4.21888939,1.70737264,-2.84509906,7.47426604e-01,4.16806473e-05,6.85422592,-1.58717085,-1,-0.8791446617843096
3.33593275e+03,3.39952094e+01,-1.96534725e-07,4.22596057,1.69514120,-2.84509892,7.47426608e-01,4.16806470e-05,6.86638805,-1.55138663,-1,-0.8760925409462679
3.41680469e+03,3.39951931e+01,-2.03800472e-07,4.23306249,1.68274946,-2.84509892,7.47426617e-01,4.16806461e-05,6.87856869,-1.51558814,-1,-0.8729752287166466
3.49939283e+03,3.39951759e+01,-2.11132391e-07,4.24019129,1.67020404,-2.84509900,7.47426624e-01,4.16806452e-05,6.89076347,-1.47978330,-1,-0.8697917633658255
3.58376257e+03,3.39951577e+01,-2.18512779e-07,4.24734387,1.65750934,-2.84509889,7.47426638e-01,4.16806437e-05,6.90297196,-1.44397090,-1,-0.8665396239672656
3.66996163e+03,3.39951385e+01,-2.25931677e-07,4.25451860,1.64466995,-2.84509923,7.47426642e-01,4.16806433e-05,6.91519509,-1.40814577,-1,-0.8632169710926113
