star_age,star_mass,star_mdot,log_L,log_Teff,log_R,log_surf_z,v_wind_Km_per_s,log_center_T,log_center_Rho,phase,x
3.40914999e+03,7.99999946e-01,-1.36726322e-11,1.38155094,3.58235549,1.04874165,-1.34509847,3.38788460e-05,5.79818365,-2.21570075,-1,-1.0
3.59190390e+03,7.99999943e-01,-1.34729822e-11,1.37759707,3.58258383,1.04630803,-1.34509847,3.38485669e-05,5.80046448,-2.20888132,-1,-0.9999980123637066
3.78421446e+03,7.99999941e-01,-1.32689475e-11,1.37346773,3.58281307,1.04378488,-1.34509847,3.38121380e-05,5.80282932,-2.20180772,-1,-0.9999959207890384
3.98678216e+03,7.99999938e-01,-1.30596623e-11,1.36915195,3.58304228,1.04116856,-1.34509847,3.37663372e-05,5.80528244,-2.19447116,-1,-0.999993717657448
4.20051553e+03,7.99999936e-01,-1.28451979e-11,1.36468970,3.58328397,1.03845406,-1.34509847,3.37186534e-05,5.80782811,-2.18685574,-1,-0.9999913930877393
4.42565231e+03,7.99999933e-01,-1.26273159e-11,1.36008281,3.58353808,1.03564239,-1.34509847,3.36731866e-05,5.81046564,-2.17896818,-1,-0.999988944494246
4.66266054e+03,7.99999930e-01,-1.24061344e-11,1.35531382,3.58380042,1.03273323,-1.34509847,3.36267003e-05,5.81319517,-2.17080260,-1,-0.9999863667865527
4.91200480e+03,7.99999927e-01,-1.21812901e-11,1.35037924,3.58407028,1.02972622,-1.34509847,3.35772283e-05,5.81601721,-2.16236047,-1,-0.9999836549118752
5.17416754e+03,7.99999924e-01,-1.19533308e-11,1.34536769,3.58437030,1.02662039,-1.34509847,3.35402980e-05,5.81893226,-2.15363773,-1,-0.9999808036230748
5.45055862e+03,7.99999920e-01,-1.17247622e-11,1.34011922,3.58466369,1.02340937,-1.34509847,3.34981631e-05,5.82194733,-2.14461541,-1,-0.9999777975864774
5.74243190e+03,7.99999917e-01,-1.14905988e-11,1.33467248,3.58496227,1.02008885,-1.34509847,3.34437714e-05,5.82506599,-2.13528172,-1,-0.9999746231650689
6.04875414e+03,7.99999914e-01,-1.12541626e-11,1.32905130,3.58526636,1.01667009,-1.34509847,3.33857348e-05,5.82827828,-2.12566837,-1,-0.9999712915963943
6.37183207e+03,7.99999910e-01,-1.10146862e-11,1.32323074,3.58557465,1.01314322,-1.34509847,3.33199420e-05,5.83157409,-2.11577958,-1,-0.9999677777923982
6.71215460e+03,7.99999906e-01,-1.07729880e-11,1.31722914,3.58589039,1.00951094,-1.34509847,3.32495168e-05,5.83492308,-2.10567420,-1,-0.9999640764356825
7.07005730e+03,7.99999902e-01,-1.05303879e-11,1.31116925,3.58624669,1.00576841,-1.34509847,3.31997337e-05,5.83845678,-2.09510931,-1,-0.9999601838765793
7.44742784e+03,7.99999899e-01,-1.02875964e-11,1.30482154,3.58658556,1.00191681,-1.34509847,3.31339265e-05,5.84208189,-2.08425738,-1,-0.9999560795847402
7.84458151e+03,7.99999895e-01,-1.00425552e-11,1.29828561,3.58693026,9.97959442e-01,-1.34509847,3.30595715e-05,5.84578794,-2.07314454,-1,-0.999951760131063
8.26206676e+03,7.99999890e-01,-9.79608833e-12,1.29155911,3.58728054,9.93895632e-01,-1.34509847,3.29782421e-05,5.84961575,-2.06168656,-1,-0.9999472195505914
8.70301903e+03,7.99999886e-01,-9.54911160e-12,1.28465571,3.58764370,9.89717609e-01,-1.34509847,3.28953798e-05,5.85354560,-2.04991430,-1,-0.9999424237421979
9.16648221e+03,7.99999882e-01,-9.30252917e-12,1.27761107,3.58802425,9.85434182e-01,-1.34509847,3.28168052e-05,5.85758139,-2.03782645,-1,-0.9999373831045599
9.65393080e+03,7.99999877e-01,-9.05642219e-12,1.27034959,3.58840343,9.81045093e-01,-1.34509847,3.27295841e-05,5.86171694,-2.02543680,-1,-0.999932081600977
1.01675755e+04,7.99999873e-01,-8.81052729e-12,1.26287948,3.58878523,9.76546438e-01,-1.34509847,3.26335962e-05,5.86595892,-2.01272540,-1,-0.9999264951878183
1.07088088e+04,7.99999868e-01,-8.56575137e-12,1.25526296,3.58918495,9.71938727e-01,-1.34509847,3.25408750e-05,5.87030489,-1.99970085,-1,-0.9999206087203261
1.12783597e+04,7.99999863e-01,-8.32329259e-12,1.24749842,3.58960082,9.67224713e-01,-1.34509847,3.24537286e-05,5.87475344,-1.98636861,-1,-0.9999144142698774
1.18776877e+04,7.99999859e-01,-8.08047862e-12,1.23944074,3.58999522,9.62407088e-01,-1.34509847,3.23373101e-05,5.87930219,-1.97273494,-1,-0.9999078959629123
1.25085698e+04,7.99999854e-01,-7.84032391e-12,1.23126501,3.59041254,9.57484571e-01,-1.34509847,3.22294222e-05,5.88395209,-1.95879854,-1,-0.9999010344727323
1.31725435e+04,7.99999849e-01,-7.60194307e-12,1.22285911,3.59082348,9.52459742e-01,-1.34509847,3.21076303e-05,5.88870098,-1.94456425,-1,-0.9998938130774472
1.38714225e+04,7.99999843e-01,-7.36578891e-12,1.21433489,3.59125571,9.47333168e-01,-1.34509847,3.19890832e-05,5.89354788,-1.93003420,-1,-0.9998862120512086
1.46068494e+04,7.99999838e-01,-7.13333595e-12,1.20561454,3.59168874,9.42106939e-01,-1.34509847,3.18668907e-05,5.89849124,-1.91521059,-1,-0.9998782135290561
1.53805368e+04,7.99999833e-01,-6.90246499e-12,1.19665514,3.59211029,9.36784142e-01,-1.34509847,3.17232855e-05,5.90352836,-1.90010564,-1,-0.9998697988847074
1.61959383e+04,7.99999827e-01,-6.67550356e-12,1.18754233,3.59254297,9.31362378e-01,-1.34509847,3.15805035e-05,5.90866095,-1.88470994,-1,-0.9998609305567187
1.70540825e+04,7.99999822e-01,-6.45289298e-12,1.17831385,3.59299461,9.25844854e-01,-1.34509847,3.14449844e-05,5.91388624,-1.86903499,-1,-0.9998515973580094
1.79567607e+04,7.99999816e-01,-6.23412458e-12,1.16899561,3.59347086,9.20233240e-01,-1.34509847,3.13171199e-05,5.91920291,-1.85308257,-1,-0.9998417798063544
1.89056864e+04,7.99999810e-01,-6.01851662e-12,1.15936891,3.59391391,9.14533786e-01,-1.34509847,3.11590756e-05,5.92460486,-1.83687007,-1,-0.9998314592656826
1.99063094e+04,7.99999804e-01,-5.80651050e-12,1.14957495,3.59436103,9.08742572e-01,-1.34509847,3.09923048e-05,5.93009560,-1.82038786,-1,-0.9998205764638273
2.09580352e+04,7.99999798e-01,-5.59866303e-12,1.13963475,3.59481329,9.02867946e-01,-1.34509847,3.08209886e-05,5.93566770,-1.80365776,-1,-0.9998091378665857
2.20647641e+04,7.99999792e-01,-5.39534319e-12,1.12950406,3.59525909,8.96911003e-01,-1.34509847,3.06394254e-05,5.94132066,-1.78667989,-1,-0.9997971010541935
2.32301443e+04,7.99999786e-01,-5.19721506e-12,1.11930616,3.59572955,8.90871134e-01,-1.34509847,3.04681392e-05,5.94705507,-1.76945829,-1,-0.9997844263487322
2.44552742e+04,7.99999780e-01,-5.00308218e-12,1.10886411,3.59617657,8.84756056e-01,-1.34509847,3.02738640e-05,5.95286342,-1.75201091,-1,-0.9997711018039748
2.57456417e+04,7.99999774e-01,-4.81387928e-12,1.09833960,3.59664158,8.78563799e-01,-1.34509847,3.00833070e-05,5.95874821,-1.73433419,-1,-0.9997570677333776
2.71026491e+04,7.99999767e-01,-4.62932193e-12,1.08765105,3.59710112,8.72300444e-01,-1.34509847,2.98827202e-05,5.96470342,-1.71643642,-1,-0.9997423088854893
2.85306675e+04,7.99999761e-01,-4.45080595e-12,1.07688936,3.59757785,8.65966132e-01,-1.34509847,2.96928985e-05,5.97072912,-1.69832643,-1,-0.9997267777201123
3.00339242e+04,7.99999754e-01,-4.27647341e-12,1.06592450,3.59803651,8.59566376e-01,-1.34509847,2.94822635e-05,5.97682004,-1.68001348,-1,-0.9997104282610214
3.16141251e+04,7.99999748e-01,-4.10678868e-12,1.05481366,3.59848871,8.53106559e-01,-1.34509847,2.92610072e-05,5.98297009,-1.66152429,-1,-0.9996932419548038
3.32777272e+04,7.99999741e-01,-3.94210648e-12,1.04353172,3.59892628,8.46590444e-01,-1.34509847,2.90263943e-05,5.98917612,-1.64286189,-1,-0.999675148574959
3.50290578e+04,7.99999734e-01,-3.78349048e-12,1.03227850,3.59939887,8.40018660e-01,-1.34509847,2.88121842e-05,5.99543796,-1.62402689,-1,-0.9996561010576591
3.68703964e+04,7.99999728e-01,-3.62929842e-12,1.02081731,3.59984174,8.33402334e-01,-1.34509847,2.85740666e-05,6.00174585,-1.60504802,-1,-0.9996360746110029
3.88076868e+04,7.99999721e-01,-3.48113667e-12,1.00939291,3.60031553,8.26742543e-01,-1.34509847,2.83553072e-05,6.00809931,-1.58593438,-1,-0.9996150045900665
4.08481915e+04,7.99999714e-01,-3.33756159e-12,9.97780724e-01,3.60075879,8.20049928e-01,-1.34509847,2.81125615e-05,6.01448841,-1.56671806,-1,-0.9995928120077101
4.29947762e+04,7.99999707e-01,-3.19909022e-12,9.86108727e-01,3.60119871,8.13334101e-01,-1.34509847,2.78653045e-05,6.02090186,-1.54742436,-1,-0.9995694656965061
4.52536837e+04,7.99999700e-01,-3.06603001e-12,9.74483057e-01,3.60165744,8.06603796e-01,-1.34509847,2.76269826e-05,6.02733157,-1.52807736,-1,-0.9995448977595986
4.76300567e+04,7.99999693e-01,-2.93879269e-12,9.62751530e-01,3.60208945,7.99874022e-01,-1.34509847,2.73804873e-05,6.03376350,-1.50871894,-1,-0.9995190522648484
5.01307760e+04,7.99999686e-01,-2.81636879e-12,9.50990149e-01,3.60250581,7.93160599e-01,-1.34509847,2.71224387e-05,6.04018314,-1.48939392,-1,-0.999491854376495
5.27656448e+04,7.99999679e-01,-2.69942023e-12,9.39263664e-01,3.60291322,7.86482548e-01,-1.34509847,2.68613255e-05,6.04657334,-1.47015891,-1,-0.9994631974746795
5.55390850e+04,7.99999671e-01,-2.58804868e-12,9.27589276e-01,3.60330424,7.79863310e-01,-1.34509847,2.65965202e-05,6.05291148,-1.45108683,-1,-0.9994330334667021
5.84596099e+04,7.99999664e-01,-2.48254673e-12,9.16135674e-01,3.60370893,7.73327133e-01,-1.34509847,2.63450026e-05,6.05917281,-1.43224456,-1,-0.9994012697616899
6.15337447e+04,7.99999656e-01,-2.38316513e-12,9.04768603e-01,3.60407665,7.66908155e-01,-1.34509847,2.60878062e-05,6.06532449,-1.41373087,-1,-0.9993678353913974
6.47749383e+04,7.99999649e-01,-2.28946901e-12,8.93660519e-01,3.60443105,7.60645302e-01,-1.34509847,2.58302568e-05,6.07132923,-1.39565499,-1,-0.9993325840852374
6.81914161e+04,7.99999641e-01,-2.20200086e-12,8.82894249e-01,3.60477348,7.54577321e-01,-1.34509847,2.55799638e-05,6.07714990,-1.37813359,-1,-0.9992954263835447
7.17884775e+04,7.99999634e-01,-2.12087268e-12,8.72561012e-01,3.60510982,7.48738013e-01,-1.34509847,2.53432087e-05,6.08275435,-1.36126350,-1,-0.999256304649907
7.55889246e+04,7.99999626e-01,-2.04681902e-12,8.62681440e-01,3.60541562,7.43186623e-01,-1.34509847,2.51166821e-05,6.08808533,-1.34522343,-1,-0.9992149708880894
7.95903082e+04,7.99999618e-01,-1.97864559e-12,8.53275079e-01,3.60568726,7.37940174e-01,-1.34509847,2.48910422e-05,6.09312579,-1.33005678,-1,-0.9991714517356551
8.38116202e+04,7.99999610e-01,-1.91661144e-12,8.44436310e-01,3.60593036,7.33034597e-01,-1.34509847,2.46727971e-05,6.09784045,-1.31587128,-1,-0.9991255406362043
8.82682992e+04,7.99999601e-01,-1.86082536e-12,8.36266993e-01,3.60616405,7.28482544e-01,-1.34509847,2.44751251e-05,6.10221740,-1.30270241,-1,-0.9990770696791205
9.29671940e+04,7.99999593e-01,-1.81101326e-12,8.28769836e-01,3.60639881,7.24264444e-01,-1.34509847,2.43063585e-05,6.10627470,-1.29049620,-1,-0.9990259643766762
9.79176273e+04,7.99999584e-01,-1.76569284e-12,8.21717217e-01,3.60659137,7.20353011e-01,-1.34509847,2.41367285e-05,6.11003832,-1.27917298,-1,-0.998972123334943
1.03146815e+05,7.99999575e-01,-1.72492717e-12,8.15233326e-01,3.60679235,7.16709125e-01,-1.34509847,2.39935550e-05,6.11354603,-1.26861867,-1,-0.9989152505530824
1.08658588e+05,7.99999566e-01,-1.68709948e-12,8.08986771e-01,3.60695607,7.13258392e-01,-1.34509847,2.38473288e-05,6.11686856,-1.25862343,-1,-0.9988553043661259
1.14446163e+05,7.99999556e-01,-1.65141065e-12,8.02964695e-01,3.60711950,7.09920499e-01,-1.34509847,2.37109203e-05,6.12008344,-1.24895331,-1,-0.9987923585494215
1.20576281e+05,7.99999546e-01,-1.61725450e-12,7.96992031e-01,3.60727730,7.06618578e-01,-1.34509847,2.35800267e-05,6.12326448,-1.23938723,-1,-0.9987256872261118
1.26996012e+05,7.99999536e-01,-1.58339162e-12,7.90918873e-01,3.60743502,7.03266549e-01,-1.34509847,2.34492823e-05,6.12649430,-1.22967403,-1,-0.9986558660642577
1.33791960e+05,7.99999525e-01,-1.54872201e-12,7.84533942e-01,3.60759731,6.99749496e-01,-1.34509847,2.33119082e-05,6.12988411,-1.21948210,-1,-0.9985819531564957
1.40905018e+05,7.99999514e-01,-1.51258969e-12,7.77725023e-01,3.60776331,6.96013043e-01,-1.34509847,2.31637198e-05,6.13348613,-1.20865256,-1,-0.9985045913521
1.48423820e+05,7.99999503e-01,-1.47376254e-12,7.70316073e-01,3.60797151,6.91892161e-01,-1.34509847,2.30096612e-05,6.13745981,-1.19670438,-1,-0.9984228166653739
1.56304373e+05,7.99999492e-01,-1.43154349e-12,7.62005679e-01,3.60817492,6.87330153e-01,-1.34509847,2.28249893e-05,6.14186028,-1.18347183,-1,-0.9983371075653333
1.64578696e+05,7.99999480e-01,-1.38489656e-12,7.52629868e-01,3.60840375,6.82184578e-01,-1.34509847,2.26103451e-05,6.14682563,-1.16854160,-1,-0.9982471158124988
1.73258577e+05,7.99999469e-01,-1.33312265e-12,7.41867077e-01,3.60865006,6.76310572e-01,-1.34509847,2.23558302e-05,6.15249626,-1.15148993,-1,-0.9981527132002749
1.82336673e+05,7.99999457e-01,-1.27576868e-12,7.29543478e-01,3.60892766,6.69593580e-01,-1.34509847,2.20583562e-05,6.15898392,-1.13198199,-1,-0.998053979591321
1.91823072e+05,7.99999445e-01,-1.21286751e-12,7.15349266e-01,3.60922973,6.61892319e-01,-1.34509847,2.17125657e-05,6.16642643,-1.10960634,-1,-0.9979508052682862
2.01706718e+05,7.99999434e-01,-1.14518071e-12,6.99285103e-01,3.60956324,6.53193224e-01,-1.34509847,2.13197209e-05,6.17483873,-1.08432149,-1,-0.9978433104765146
2.12003096e+05,7.99999422e-01,-1.07458020e-12,6.81467862e-01,3.60991255,6.43585982e-01,-1.34509847,2.08827603e-05,6.18413538,-1.05638114,-1,-0.9977313268007424
2.22742289e+05,7.99999411e-01,-1.00410063e-12,6.62442446e-01,3.61026993,6.33358510e-01,-1.34509847,2.04212074e-05,6.19403792,-1.02661862,-1,-0.9976145270574767
2.33985906e+05,7.99999400e-01,-9.36519405e-13,6.42773626e-01,3.61059056,6.22882849e-01,-1.34509847,1.99407631e-05,6.20418652,-9.96120280e-01,-1,-0.997492241185626
2.45800884e+05,7.99999390e-01,-8.73766815e-13,6.23212912e-01,3.61092438,6.12434851e-01,-1.34509847,1.94801626e-05,6.21431547,-9.65684099e-01,-1,-0.9973637411766317
2.58221367e+05,7.99999379e-01,-8.15957222e-13,6.03726419e-01,3.61119878,6.02142803e-01,-1.34509847,1.90191603e-05,6.22430333,-9.35673768e-01,-1,-0.9972286556794593
2.71293908e+05,7.99999369e-01,-7.62644237e-13,5.84474636e-01,3.61144675,5.92020973e-01,-1.34509847,1.85656621e-05,6.23421958,-9.05989621e-01,-1,-0.9970864783824658
2.85050986e+05,7.99999359e-01,-7.13469517e-13,5.65482200e-01,3.61167778,5.82062698e-01,-1.34509847,1.81241013e-05,6.24389102,-8.76938685e-01,-1,-0.9969368560432
2.99522438e+05,7.99999349e-01,-6.67990800e-13,5.46665343e-01,3.61187622,5.72257385e-01,-1.34509847,1.76881941e-05,6.25341863,-8.48323491e-01,-1,-0.9967794641536715
3.14749865e+05,7.99999339e-01,-6.25884222e-13,5.28067595e-01,3.61205904,5.62592860e-01,-1.34509847,1.72626058e-05,6.26281463,-8.20104035e-01,-1,-0.9966138502603186
3.30765194e+05,7.99999330e-01,-5.86800024e-13,5.09574677e-01,3.61219919,5.53066105e-01,-1.34509847,1.68382768e-05,6.27208323,-7.92269386e-01,-1,-0.9964396671242565
3.47614536e+05,7.99999320e-01,-5.50534769e-13,4.91231793e-01,3.61231272,5.43667604e-01,-1.34509847,1.64211516e-05,6.28123261,-7.64795090e-01,-1,-0.996256413241046
3.65344036e+05,7.99999311e-01,-5.16837603e-13,4.73093624e-01,3.61241812,5.34387719e-01,-1.34509847,1.60154634e-05,6.29026988,-7.37656024e-01,-1,-0.9960635867364632
3.84002113e+05,7.99999302e-01,-4.85604540e-13,4.55155965e-01,3.61251883,5.25217484e-01,-1.34509847,1.56248761e-05,6.29920372,-7.10830552e-01,-1,-0.9958606610042008
4.03624621e+05,7.99999293e-01,-4.56407314e-13,4.37286734e-01,3.61258275,5.16155011e-01,-1.34509847,1.52341580e-05,6.30803664,-6.84314705e-01,-1,-0.9956472460952193
4.24258099e+05,7.99999283e-01,-4.29131511e-13,4.19461368e-01,3.61260521,5.07197407e-01,-1.34509847,1.48437754e-05,6.31677150,-6.58093993e-01,-1,-0.9954228358501405
4.45959945e+05,7.99999275e-01,-4.03676514e-13,4.01744354e-01,3.61260619,4.98336951e-01,-1.34509847,1.44601737e-05,6.32541613,-6.32143435e-01,-1,-0.9951868060068186
4.68796094e+05,7.99999266e-01,-3.79942909e-13,3.84248282e-01,3.61261929,4.89562710e-01,-1.34509847,1.40921404e-05,6.33398058,-6.06436799e-01,-1,-0.9949384394544736
4.92795466e+05,7.99999257e-01,-3.57742783e-13,3.66715754e-01,3.61257757,4.80879894e-01,-1.34509847,1.37227843e-05,6.34245799,-5.80991056e-01,-1,-0.9946774216584308
5.18059271e+05,7.99999248e-01,-3.36951905e-13,3.49304274e-01,3.61252491,4.72279469e-01,-1.34509847,1.33604847e-05,6.35085772,-5.55784118e-01,-1,-0.9944026518560893
5.44624421e+05,7.99999240e-01,-3.17484502e-13,3.31972890e-01,3.61245320,4.63757203e-01,-1.34509847,1.30047899e-05,6.35918446,-5.30798288e-01,-1,-0.9941137285915744
5.72548824e+05,7.99999231e-01,-2.99221658e-13,3.14683073e-01,3.61235358,4.55311528e-01,-1.34509847,1.26529739e-05,6.36743963,-5.06025950e-01,-1,-0.9938100220559671
6.01938864e+05,7.99999223e-01,-2.82117015e-13,2.97484612e-01,3.61224050,4.46938467e-01,-1.34509847,1.23086730e-05,6.37562715,-4.81456176e-01,-1,-0.9934903752141075
6.32842589e+05,7.99999214e-01,-2.66096962e-13,2.80353995e-01,3.61211004,4.38634060e-01,-1.34509847,1.19720472e-05,6.38375086,-4.57082708e-01,-1,-0.9931542654946943
6.65331202e+05,7.99999206e-01,-2.51012706e-13,2.63246074e-01,3.61195100,4.30398193e-01,-1.34509847,1.16375269e-05,6.39180920,-4.32906419e-01,-1,-0.9928009184920416
6.99520887e+05,7.99999198e-01,-2.36866513e-13,2.46208543e-01,3.61177753,4.22226371e-01,-1.34509847,1.13102898e-05,6.39980724,-4.08911142e-01,-1,-0.9924290705859339
7.35447741e+05,7.99999189e-01,-2.23569407e-13,2.29207515e-01,3.61158287,4.14115161e-01,-1.34509847,1.09887650e-05,6.40774807,-3.85088286e-01,-1,-0.9920383291844574
7.73264333e+05,7.99999181e-01,-2.11064648e-13,2.12232139e-01,3.61136408,4.06065064e-01,-1.34509847,1.06713230e-05,6.41563213,-3.61433052e-01,-1,-0.9916270349431876
8.13004835e+05,7.99999173e-01,-1.99300202e-13,1.95348678e-01,3.61114117,3.98069154e-01,-1.34509847,1.03625066e-05,6.42346562,-3.37930458e-01,-1,-0.9911948162065608
8.54825845e+05,7.99999165e-01,-1.88242117e-13,1.78423293e-01,3.61087803,3.90132741e-01,-1.34509847,1.00560393e-05,6.43124270,-3.14600958e-01,-1,-0.9907399698106432
8.98770764e+05,7.99999157e-01,-1.77808889e-13,1.61547092e-01,3.61060090,3.82248898e-01,-1.34509847,9.75534074e-06,6.43897087,-2.91419567e-01,-1,-0.9902620237250264
9.45029252e+05,7.99999149e-01,-1.68008833e-13,1.44750762e-01,3.61031846,3.74415611e-01,-1.34509847,9.46354277e-06,6.44665079,-2.68380412e-01,-1,-0.989758915202602
9.93653549e+05,7.99999141e-01,-1.58773108e-13,1.27981610e-01,3.61001824,3.66631479e-01,-1.34509847,9.17758133e-06,6.45428423,-2.45478848e-01,-1,-0.9892300760797668
1.04478364e+06,7.99999134e-01,-1.50067389e-13,1.11202059e-01,3.60969071,3.58896753e-01,-1.34509847,8.89597390e-06,6.46187090,-2.22720232e-01,-1,-0.9886739838760087
1.09856662e+06,7.99999126e-01,-1.41862476e-13,9.44428424e-02,3.60934451,3.51209562e-01,-1.34509847,8.62014467e-06,6.46941242,-2.00095152e-01,-1,-0.9880890387822697
1.15508682e+06,7.99999118e-01,-1.34115523e-13,7.76919396e-02,3.60897747,3.43568175e-01,-1.34509847,8.34936468e-06,6.47691048,-1.77599546e-01,-1,-0.9874743236123935
1.21457025e+06,7.99999110e-01,-1.26819741e-13,6.09765364e-02,3.60859714,3.35971148e-01,-1.34509847,8.08549194e-06,6.48436746,-1.55227726e-01,-1,-0.9868273802757233
1.27711547e+06,7.99999103e-01,-1.19941603e-13,4.42981563e-02,3.60820534,3.28415545e-01,-1.34509847,7.82862118e-06,6.49178511,-1.32977560e-01,-1,-0.9861471368311275
1.34284801e+06,7.99999095e-01,-1.13443984e-13,2.76124223e-02,3.60779090,3.20901568e-01,-1.34509847,7.57657033e-06,6.49916379,-1.10842741e-01,-1,-0.9854322280110509
1.41204382e+06,7.99999087e-01,-1.07318122e-13,1.10097037e-02,3.60737793,3.13426150e-01,-1.34509847,7.33280750e-06,6.50650482,-8.88152422e-02,-1,-0.9846796525760937
1.48478868e+06,7.99999080e-01,-1.01547330e-13,-5.61131099e-03,3.60694040,3.05990689e-01,-1.34509847,7.09476783e-06,6.51380721,-6.69045536e-02,-1,-0.9838884775807377
1.56126220e+06,7.99999072e-01,-9.60918716e-14,-2.22070707e-02,3.60649052,2.98592579e-01,-1.34509847,6.86253909e-06,6.52107362,-4.51003439e-02,-1,-0.9830567495819368
1.64170038e+06,7.99999065e-01,-9.09435876e-14,-3.87630523e-02,3.60603292,2.91229785e-01,-1.34509847,6.63719588e-06,6.52830675,-2.33963214e-02,-1,-0.9821819018375334
1.72631752e+06,7.99999058e-01,-8.60775011e-14,-5.53377459e-02,3.60555237,2.83903539e-01,-1.34509847,6.41630624e-06,6.53550515,-1.79584458e-03,-1,-0.9812616036151361
1.81529605e+06,7.99999050e-01,-8.14852486e-14,-7.18521367e-02,3.60507097,2.76609150e-01,-1.34509848,6.20302708e-06,6.54267393,1.97171597e-02,-1,-0.9802938708013053
1.90883985e+06,7.99999043e-01,-7.71468144e-14,-8.83587055e-02,3.60457505,2.69347698e-01,-1.34509848,5.99541962e-06,6.54981194,4.11386581e-02,-1,-0.9792764859918414
