star_age,star_mass,star_mdot,log_L,log_Teff,log_R,log_surf_z,v_wind_Km_per_s,log_center_T,log_center_Rho,phase
6.39239465e+03,4.99999965e-01,-4.59571461e-12,9.05480435e-01,3.56438349,8.46650398e-01,-1.34509847,1.87740457e-05,5.79975157,-1.81038742,-1
6.73590862e+03,4.99999964e-01,-4.52439291e-12,9.01162410e-01,3.56452984,8.44198668e-01,-1.34509847,1.86903737e-05,5.80203389,-1.80356804,-1
7.09785372e+03,4.99999962e-01,-4.45180775e-12,8.96696839e-01,3.56468458,8.41656412e-01,-1.34509847,1.86054890e-05,5.80440110,-1.79649328,-1
7.47931022e+03,4.99999960e-01,-4.37791269e-12,8.92026350e-01,3.56483417,8.39021987e-01,-1.34509847,1.85153308e-05,5.80684554,-1.78917372,-1
7.88116025e+03,4.99999959e-01,-4.30230538e-12,8.87206414e-01,3.56499181,8.36296731e-01,-1.34509847,1.84215424e-05,5.80927997,-1.78176411,-1
8.30457413e+03,4.99999957e-01,-4.22560772e-12,8.82196567e-01,3.56515115,8.33473144e-01,-1.34509847,1.83247995e-05,5.81191167,-1.77389753,-1
8.75028991e+03,4.99999955e-01,-4.14749514e-12,8.77008499e-01,3.56531268,8.30556035e-01,-1.34509847,1.82233488e-05,5.81460354,-1.76581667,-1
9.21914551e+03,4.99999953e-01,-4.06823409e-12,8.71636529e-01,3.56547566,8.27544093e-01,-1.34509847,1.81177825e-05,5.81738232,-1.75747228,-1
9.71244869e+03,4.99999951e-01,-3.98781817e-12,8.66082899e-01,3.56564220,8.24434196e-01,-1.34509847,1.80084719e-05,5.82028343,-1.74879816,-1
1.02340019e+04,4.99999949e-01,-3.90640820e-12,8.60357400e-01,3.56581911,8.21217628e-01,-1.34509847,1.78972513e-05,5.82327434,-1.73984241,-1
1.07821265e+04,4.99999947e-01,-3.82423669e-12,8.54425829e-01,3.56599300,8.17904071e-01,-1.34509847,1.77811930e-05,5.82636774,-1.73059145,-1
1.13590081e+04,4.99999945e-01,-3.74121643e-12,8.48330306e-01,3.56617554,8.14491218e-01,-1.34509847,1.76625608e-05,5.82954885,-1.72107309,-1
1.19680654e+04,4.99999943e-01,-3.65796339e-12,8.42112793e-01,3.56638197,8.10969617e-01,-1.34509847,1.75476160e-05,5.83283742,-1.71123666,-1
1.26071909e+04,4.99999940e-01,-3.57425027e-12,8.35680809e-01,3.56658262,8.07352308e-01,-1.34509847,1.74272192e-05,5.83621720,-1.70112737,-1
1.32832164e+04,4.99999938e-01,-3.48992730e-12,8.28989718e-01,3.56677445,8.03623117e-01,-1.34509847,1.72994927e-05,5.83970334,-1.69069828,-1
1.39924184e+04,4.99999935e-01,-3.40491142e-12,8.22112881e-01,3.56696773,7.99798142e-01,-1.34509847,1.71664301e-05,5.84328143,-1.67999400,-1
1.47413006e+04,4.99999933e-01,-3.31978999e-12,8.15058176e-01,3.56717108,7.95864082e-01,-1.34509847,1.70319948e-05,5.84696311,-1.66898059,-1
1.55290634e+04,4.99999930e-01,-3.23452674e-12,8.07786060e-01,3.56737059,7.91828998e-01,-1.34509847,1.68923111e-05,5.85074151,-1.65767645,-1
1.63568835e+04,4.99999928e-01,-3.14920671e-12,8.00298548e-01,3.56756544,7.87695554e-01,-1.34509847,1.67471943e-05,5.85461273,-1.64609396,-1
1.72314342e+04,4.99999925e-01,-3.06389686e-12,7.92627247e-01,3.56776894,7.83452903e-01,-1.34509847,1.65996026e-05,5.85858871,-1.63419733,-1
1.81513279e+04,4.99999922e-01,-2.97897875e-12,7.84772933e-01,3.56797642,7.79110775e-01,-1.34509847,1.64499078e-05,5.86265960,-1.62201752,-1
1.91190126e+04,4.99999920e-01,-2.89434148e-12,7.76668375e-01,3.56817051,7.74670318e-01,-1.34509847,1.62930756e-05,5.86682421,-1.60955315,-1
2.01377795e+04,4.99999917e-01,-2.81010124e-12,7.68398750e-01,3.56837292,7.70130688e-01,-1.34509847,1.61339004e-05,5.87108304,-1.59680431,-1
2.12105616e+04,4.99999914e-01,-2.72648612e-12,7.59929043e-01,3.56857483,7.65492006e-01,-1.34509847,1.59713282e-05,5.87543719,-1.58376664,-1
2.23400665e+04,4.99999911e-01,-2.64396725e-12,7.51315654e-01,3.56878988,7.60755228e-01,-1.34509847,1.58106836e-05,5.87988550,-1.57044343,-1
2.35291910e+04,4.99999908e-01,-2.56198933e-12,7.42469702e-01,3.56899483,7.55922350e-01,-1.34509847,1.56431006e-05,5.88442687,-1.55684076,-1
2.47811779e+04,4.99999904e-01,-2.48087412e-12,7.33434278e-01,3.56919993,7.50994439e-01,-1.34509847,1.54723951e-05,5.88906035,-1.54296214,-1
2.60994134e+04,4.99999901e-01,-2.40112140e-12,7.24265041e-01,3.56941874,7.45972201e-01,-1.34509847,1.53042753e-05,5.89378492,-1.52881185,-1
2.74869876e+04,4.99999898e-01,-2.32223754e-12,7.14870957e-01,3.56962687,7.40858894e-01,-1.34509847,1.51297636e-05,5.89859767,-1.51439664,-1
2.89473783e+04,4.99999895e-01,-2.24444793e-12,7.05277159e-01,3.56982938,7.35656979e-01,-1.34509847,1.49510706e-05,5.90349574,-1.49972609,-1
3.04840146e+04,4.99999891e-01,-2.16783873e-12,6.95459515e-01,3.57001871,7.30369492e-01,-1.34509847,1.47666968e-05,5.90847657,-1.48480419,-1
3.21006855e+04,4.99999888e-01,-2.09248915e-12,6.85465866e-01,3.57020547,7.24999153e-01,-1.34509847,1.45793639e-05,5.91353746,-1.46963808,-1
3.38026026e+04,4.99999885e-01,-2.01878438e-12,6.75372318e-01,3.57040890,7.19545518e-01,-1.34509847,1.43958733e-05,5.91868006,-1.45422393,-1
3.55958211e+04,4.99999881e-01,-1.94646893e-12,6.65047054e-01,3.57059442,7.14011834e-01,-1.34509847,1.42057956e-05,5.92390126,-1.43857220,-1
3.74816965e+04,4.99999877e-01,-1.87567256e-12,6.54578182e-01,3.57078173,7.08402775e-01,-1.34509847,1.40150089e-05,5.92919668,-1.42269964,-1
3.94643441e+04,4.99999874e-01,-1.80646628e-12,6.43944577e-01,3.57096369,7.02722057e-01,-1.34509847,1.38222901e-05,5.93456285,-1.40661317,-1
4.15552970e+04,4.99999870e-01,-1.73899317e-12,6.33150815e-01,3.57114182,6.96968920e-01,-1.34509847,1.36282363e-05,5.93999994,-1.39031375,-1
4.37531992e+04,4.99999866e-01,-1.67309241e-12,6.22255794e-01,3.57132730,6.91150458e-01,-1.34509847,1.34347575e-05,5.94550162,-1.37381900,-1
4.60666084e+04,4.99999863e-01,-1.60919943e-12,6.11163525e-01,3.57149434,6.85270237e-01,-1.34509847,1.32393499e-05,5.95106422,-1.35713547,-1
4.85018422e+04,4.99999859e-01,-1.54684062e-12,5.99953951e-01,3.57166107,6.79331988e-01,-1.34509847,1.30423849e-05,5.95668495,-1.34027532,-1
5.10633792e+04,4.99999855e-01,-1.48641184e-12,5.88610030e-01,3.57182032,6.73341517e-01,-1.34509847,1.28452202e-05,5.96235822,-1.32325418,-1
5.37605070e+04,4.99999851e-01,-1.42758821e-12,5.77113954e-01,3.57196466,6.67304808e-01,-1.34509847,1.26439091e-05,5.96807841,-1.30609023,-1
5.65976128e+04,4.99999847e-01,-1.37056342e-12,5.65493901e-01,3.57209723,6.61229638e-01,-1.34509847,1.24409791e-05,5.97383744,-1.28880823,-1
5.95841111e+04,4.99999843e-01,-1.31550115e-12,5.53787079e-01,3.57222374,6.55123206e-01,-1.34509847,1.22388539e-05,5.97962890,-1.27142888,-1
6.27281595e+04,4.99999839e-01,-1.26241858e-12,5.42034176e-01,3.57234992,6.48994393e-01,-1.34509847,1.20390912e-05,5.98544426,-1.25397274,-1
6.60348526e+04,4.99999835e-01,-1.21114452e-12,5.30198927e-01,3.57246014,6.42856333e-01,-1.34509847,1.18374042e-05,5.99127141,-1.23647122,-1
6.95196911e+04,4.99999831e-01,-1.16199203e-12,5.18321031e-01,3.57255763,6.36722414e-01,-1.34509847,1.16368628e-05,5.99709799,-1.21897134,-1
7.31855461e+04,4.99999827e-01,-1.11489416e-12,5.06484167e-01,3.57265606,6.30607108e-01,-1.34509847,1.14403582e-05,6.00291006,-1.20151450,-1
7.70468727e+04,4.99999823e-01,-1.06983794e-12,4.94673123e-01,3.57274107,6.24531564e-01,-1.34509847,1.12448762e-05,6.00868675,-1.18416609,-1
8.11125594e+04,4.99999818e-01,-1.02693701e-12,4.82927677e-01,3.57281125,6.18518493e-01,-1.34509847,1.10515726e-05,6.01440600,-1.16698760,-1
8.53937534e+04,4.99999814e-01,-9.86208163e-13,4.71318075e-01,3.57287137,6.12593440e-01,-1.34509847,1.08617997e-05,6.02004404,-1.15004825,-1
8.99072740e+04,4.99999810e-01,-9.47894855e-13,4.59959891e-01,3.57293474,6.06787623e-01,-1.34509847,1.06802570e-05,6.02557136,-1.13343491,-1
9.46604254e+04,4.99999805e-01,-9.11849958e-13,4.48810509e-01,3.57297429,6.01133830e-01,-1.34509847,1.05011974e-05,6.03095684,-1.11724634,-1
9.96731889e+04,4.99999801e-01,-8.78219101e-13,4.38011281e-01,3.57300563,5.95671539e-01,-1.34509847,1.03288457e-05,6.03616276,-1.10159799,-1
1.04958312e+05,4.99999797e-01,-8.47076317e-13,4.27643807e-01,3.57303150,5.90436047e-01,-1.34509847,1.01649668e-05,6.04115483,-1.08659163,-1
1.10529346e+05,4.99999792e-01,-8.18411388e-13,4.17746380e-01,3.57304462,5.85461109e-01,-1.34509847,1.00092218e-05,6.04590030,-1.07232772,-1
1.16404291e+05,4.99999787e-01,-7.92227124e-13,4.08403321e-01,3.57305077,5.80777278e-01,-1.34509847,9.86287966e-06,6.05036945,-1.05889365,-1
1.22606429e+05,4.99999782e-01,-7.68525210e-13,3.99689490e-01,3.57305587,5.76410152e-01,-1.34509847,9.72779065e-06,6.05453754,-1.04636348,-1
1.29148560e+05,4.99999777e-01,-7.47245317e-13,3.91638364e-01,3.57306803,5.72360266e-01,-1.34509847,9.60615094e-06,6.05840403,-1.03473709,-1
1.36055649e+05,4.99999772e-01,-7.28069151e-13,3.84131770e-01,3.57305783,5.68627374e-01,-1.34509847,9.49121188e-06,6.06196899,-1.02401846,-1
1.43336376e+05,4.99999767e-01,-7.10731838e-13,3.77180674e-01,3.57304616,5.65175166e-01,-1.34509847,9.38546765e-06,6.06526688,-1.01410051,-1
1.51000200e+05,4.99999762e-01,-6.94991587e-13,3.70707358e-01,3.57303562,5.61959582e-01,-1.34509847,9.28892797e-06,6.06833935,-1.00485969,-1
1.59108005e+05,4.99999756e-01,-6.80648978e-13,3.64622216e-01,3.57302148,5.58945307e-01,-1.34509847,9.19993826e-06,6.07122051,-9.96193850e-01,-1
1.67625992e+05,4.99999751e-01,-6.67204391e-13,3.58766594e-01,3.57300545,5.56049542e-01,-1.34509847,9.11601211e-06,6.07398925,-9.87868548e-01,-1
1.76620545e+05,4.99999745e-01,-6.54394534e-13,3.53012593e-01,3.57298478,5.53213890e-01,-1.34509847,9.03520551e-06,6.07670104,-9.79712211e-01,-1
1.86098889e+05,4.99999739e-01,-6.41850580e-13,3.47230072e-01,3.57296445,5.50363295e-01,-1.34509847,8.95614611e-06,6.07942774,-9.71511545e-01,-1
1.96060825e+05,4.99999732e-01,-6.29245787e-13,3.41280931e-01,3.57294389,5.47429833e-01,-1.34509847,8.87644828e-06,6.08223449,-9.63070825e-01,-1
2.06557389e+05,4.99999726e-01,-6.16249382e-13,3.34993582e-01,3.57292066,5.44332628e-01,-1.34509847,8.79381228e-06,6.08519849,-9.54156297e-01,-1
2.17619492e+05,4.99999719e-01,-6.02461440e-13,3.28179828e-01,3.57288936,5.40988355e-01,-1.34509847,8.70391350e-06,6.08839982,-9.44527836e-01,-1
2.29229282e+05,4.99999712e-01,-5.87650223e-13,3.20801485e-01,3.57287140,5.37335097e-01,-1.34509847,8.60760336e-06,6.09189767,-9.34008857e-01,-1
2.41460358e+05,4.99999705e-01,-5.71468429e-13,3.12456367e-01,3.57283094,5.33243449e-01,-1.34509847,8.49818183e-06,6.09581623,-9.22224747e-01,-1
2.54290697e+05,4.99999698e-01,-5.53520260e-13,3.03035026e-01,3.57277657,5.28641516e-01,-1.34509847,8.37168933e-06,6.10022481,-9.08965366e-01,-1
2.67750450e+05,4.99999691e-01,-5.33583161e-13,2.92284960e-01,3.57271108,5.23397476e-01,-1.34509847,8.22721277e-06,6.10524995,-8.93851242e-01,-1
2.81852664e+05,4.99999684e-01,-5.11454947e-13,2.79927004e-01,3.57263337,5.17373906e-01,-1.34509847,8.06252196e-06,6.11102431,-8.76478772e-01,-1
2.96570654e+05,4.99999676e-01,-4.87060496e-13,2.65692136e-01,3.57252125,5.10480726e-01,-1.34509847,7.87300947e-06,6.11763640,-8.56583277e-01,-1
3.11916861e+05,4.99999669e-01,-4.60501772e-13,2.49382315e-01,3.57238003,5.02608248e-01,-1.34509847,7.65899271e-06,6.12519228,-8.33852244e-01,-1
3.27883327e+05,4.99999662e-01,-4.32368151e-13,2.31015419e-01,3.57220124,4.93782375e-01,-1.34509847,7.42305741e-06,6.13366826,-8.08355006e-01,-1
3.44486663e+05,4.99999655e-01,-4.03635964e-13,2.10977210e-01,3.57198438,4.84197006e-01,-1.34509847,7.17158641e-06,6.14287871,-7.80645590e-01,-1
3.61821967e+05,4.99999649e-01,-3.75608027e-13,1.89966914e-01,3.57174973,4.74161159e-01,-1.34509847,6.91757790e-06,6.15252867,-7.51611494e-01,-1
3.79985759e+05,4.99999642e-01,-3.49240480e-13,1.68603361e-01,3.57147406,4.64030720e-01,-1.34509847,6.66679575e-06,6.16227731,-7.22282398e-01,-1
3.99087049e+05,4.99999636e-01,-3.25009984e-13,1.47464565e-01,3.57119997,4.54009496e-01,-1.34509847,6.42929385e-06,6.17192833,-6.93245874e-01,-1
4.19188176e+05,4.99999629e-01,-3.02835196e-13,1.26584671e-01,3.57090080,4.44167889e-01,-1.34509847,6.20249731e-06,6.18151852,-6.64518650e-01,-1
4.40347568e+05,4.99999623e-01,-2.82473108e-13,1.05998976e-01,3.57058161,4.34513427e-01,-1.34509847,5.98506826e-06,6.19084889,-6.36476156e-01,-1
4.62618574e+05,4.99999617e-01,-2.63757798e-13,8.56963826e-02,3.57024705,4.25031247e-01,-1.34509847,5.77727334e-06,6.19999760,-6.08958023e-01,-1
4.86062562e+05,4.99999611e-01,-2.46540228e-13,6.57032524e-02,3.56991148,4.15705825e-01,-1.34509847,5.57987402e-06,6.20900055,-5.81876874e-01,-1
5.10730495e+05,4.99999606e-01,-2.30649087e-13,4.59344132e-02,3.56955755,4.06529266e-01,-1.34509847,5.39044689e-06,6.21786600,-5.55209245e-01,-1
5.36689981e+05,4.99999600e-01,-2.15962672e-13,2.64071992e-02,3.56919507,3.97490613e-01,-1.34509847,5.20911871e-06,6.22660478,-5.28925517e-01,-1
5.63999026e+05,4.99999594e-01,-2.02367888e-13,7.05591561e-03,3.56881063,3.88583855e-01,-1.34509847,5.03458576e-06,6.23522077,-5.03013653e-01,-1
5.92737805e+05,4.99999589e-01,-1.89767946e-13,-1.20853047e-02,3.56841800,3.79798505e-01,-1.34509847,4.86724222e-06,6.24372264,-4.77444635e-01,-1
6.22984253e+05,4.99999583e-01,-1.78082134e-13,-3.10291403e-02,3.56801775,3.71127090e-01,-1.34509847,4.70691038e-06,6.25211742,-4.52202220e-01,-1
6.54806122e+05,4.99999578e-01,-1.67215914e-13,-4.97673833e-02,3.56761625,3.62560955e-01,-1.34509847,4.55316369e-06,6.26041414,-4.27252903e-01,-1
6.88279747e+05,4.99999572e-01,-1.57133613e-13,-6.83460890e-02,3.56720492,3.54094261e-01,-1.34509847,4.40601551e-06,6.26861891,-4.02579471e-01,-1
7.23507372e+05,4.99999567e-01,-1.47733509e-13,-8.67929783e-02,3.56677818,3.45724310e-01,-1.34509847,4.26373679e-06,6.27673450,-3.78171875e-01,-1
7.60556383e+05,4.99999562e-01,-1.38956028e-13,-1.05114125e-01,3.56633774,3.37444610e-01,-1.34509847,4.12616797e-06,6.28476647,-3.54016565e-01,-1
7.99531272e+05,4.99999556e-01,-1.30767019e-13,-1.23293216e-01,3.56589098,3.29248582e-01,-1.34509847,3.99378636e-06,6.29272111,-3.30093208e-01,-1
8.40561774e+05,4.99999551e-01,-1.23131553e-13,-1.41286572e-01,3.56545231,3.21129252e-01,-1.34509847,3.86716744e-06,6.30060437,-3.06388916e-01,-1
8.83699487e+05,4.99999546e-01,-1.15996888e-13,-1.59175541e-01,3.56500307,3.13083234e-01,-1.34509847,3.74523547e-06,6.30841876,-2.82892470e-01,-1
9.29110401e+05,4.99999541e-01,-1.09323641e-13,-1.76958077e-01,3.56454522,3.05107679e-01,-1.34509847,3.62731034e-06,6.31616706,-2.59594193e-01,-1
9.76841605e+05,4.99999536e-01,-1.03057014e-13,-1.94676113e-01,3.56406996,2.97199174e-01,-1.34509847,3.51264034e-06,6.32385278,-2.36482406e-01,-1
1.02708401e+06,4.99999531e-01,-9.71925539e-14,-2.12284696e-01,3.56359022,2.89354356e-01,-1.34509847,3.40207701e-06,6.33147996,-2.13546399e-01,-1
1.07992002e+06,4.99999526e-01,-9.16921328e-14,-2.29799532e-01,3.56310365,2.81570089e-01,-1.34509847,3.29520639e-06,6.33905086,-1.90781652e-01,-1
1.13551327e+06,4.99999521e-01,-8.65329634e-14,-2.47187857e-01,3.56262023,2.73842758e-01,-1.34509847,3.19223962e-06,6.34656918,-1.68173775e-01,-1
1.19400166e+06,4.99999516e-01,-8.16983782e-14,-2.64527042e-01,3.56212062,2.66172386e-01,-1.34509847,3.09265275e-06,6.35403382,-1.45723436e-01,-1
1.25549995e+06,4.99999512e-01,-7.71515538e-14,-2.81764555e-01,3.56162111,2.58552655e-01,-1.34509847,2.99635146e-06,6.36145081,-1.23414659e-01,-1
1.32024352e+06,4.99999507e-01,-7.28857116e-14,-2.98895153e-01,3.56112429,2.50980996e-01,-1.34509847,2.90355854e-06,6.36882299,-1.01243942e-01,-1
1.38834258e+06,4.99999502e-01,-6.88746709e-14,-3.15956034e-01,3.56062197,2.43455205e-01,-1.34509847,2.81388513e-06,6.37615305,-7.91985726e-02,-1
1.45994664e+06,4.99999497e-01,-6.50984163e-14,-3.32947193e-01,3.56011542,2.35972725e-01,-1.34509847,2.72709559e-06,6.38344296,-5.72718289e-02,-1
1.53531562e+06,4.99999492e-01,-6.15482912e-14,-3.49855158e-01,3.55960883,2.28531911e-01,-1.34509847,2.64332449e-06,6.39069475,-3.54598561e-02,-1
1.61461475e+06,4.99999488e-01,-5.82088654e-14,-3.66678523e-01,3.55910400,2.21129889e-01,-1.34509847,2.56254919e-06,6.39791101,-1.37532200e-02,-1
1.69801721e+06,4.99999483e-01,-5.50663939e-14,-3.83410174e-01,3.55860435,2.13763362e-01,-1.34509847,2.48492970e-06,6.40509465,7.85562499e-03,-1
1.78572550e+06,4.99999478e-01,-5.21003383e-14,-4.00103608e-01,3.55809649,2.06432363e-01,-1.34509847,2.40954522e-06,6.41224501,2.93644551e-02,-1
1.87807539e+06,4.99999474e-01,-4.93086184e-14,-4.16722806e-01,3.55759092,1.99133912e-01,-1.34509847,2.33689541e-06,6.41936490,5.07843750e-02,-1
1.97520125e+06,4.99999469e-01,-4.66761376e-14,-4.33281967e-01,3.55708497,1.91866233e-01,-1.34509847,2.26679545e-06,6.42645670,7.21204764e-02,-1
2.07735092e+06,4.99999465e-01,-4.41915917e-14,-4.49785762e-01,3.55657810,1.84628072e-01,-1.34509847,2.19904939e-06,6.43352150,9.33729319e-02,-1
2.18481928e+06,4.99999460e-01,-4.18487537e-14,-4.66213647e-01,3.55607676,1.77416800e-01,-1.34509847,2.13387914e-06,6.44056145,1.14552997e-01,-1
2.29791194e+06,4.99999455e-01,-3.96386578e-14,-4.82576509e-01,3.55557891,1.70231082e-01,-1.34509847,2.07103510e-06,6.44757773,1.35665316e-01,-1
2.41692567e+06,4.99999451e-01,-3.75537242e-14,-4.98858007e-01,3.55508982,1.63068506e-01,-1.34509847,2.01057410e-06,6.45457187,1.56714817e-01,-1
2.54210885e+06,4.99999446e-01,-3.55861326e-14,-5.15088125e-01,3.55460249,1.55928113e-01,-1.34509847,1.95244569e-06,6.46154529,1.77706227e-01,-1
2.67382118e+06,4.99999442e-01,-3.37266507e-14,-5.31259888e-01,3.55411946,1.48808292e-01,-1.34509847,1.89638881e-06,6.46849933,1.98636736e-01,-1
2.81236763e+06,4.99999437e-01,-3.19698859e-14,-5.47378184e-01,3.55364009,1.41707880e-01,-1.34509847,1.84249688e-06,6.47543512,2.19515075e-01,-1
2.95811518e+06,4.99999433e-01,-3.03100801e-14,-5.63428598e-01,3.55316880,1.34625249e-01,-1.34509847,1.79069723e-06,6.48235495,2.40346465e-01,-1
3.11152688e+06,4.99999428e-01,-2.87412298e-14,-5.79434660e-01,3.55269972,1.27560390e-01,-1.34509847,1.74077872e-06,6.48925808,2.61126875e-01,-1
3.27296956e+06,4.99999424e-01,-2.72598986e-14,-5.95358531e-01,3.55224376,1.20510370e-01,-1.34509847,1.69296665e-06,6.49614785,2.81873586e-01,-1
3.44277897e+06,4.99999419e-01,-2.58571196e-14,-6.11259607e-01,3.55178568,1.13475996e-01,-1.34509847,1.64685945e-06,6.50302326,3.02582903e-01,-1
3.62141341e+06,4.99999415e-01,-2.45294497e-14,-6.27110303e-01,3.55133336,1.06455272e-01,-1.34509848,1.60252472e-06,6.50988644,3.23254213e-01,-1
3.80935160e+06,4.99999410e-01,-2.32735407e-14,-6.42907857e-01,3.55088799,9.94472495e-02,-1.34509848,1.55994993e-06,6.51673709,3.43891237e-01,-1
4.00712278e+06,4.99999406e-01,-2.20868338e-14,-6.58625477e-01,3.55045756,9.24492906e-02,-1.34509848,1.51917925e-06,6.52357881,3.64501578e-01,-1
4.21517494e+06,4.99999402e-01,-2.09622334e-14,-6.74315947e-01,3.55002821,8.54627583e-02,-1.34509848,1.48107944e-06,6.53041002,3.85082190e-01,-1
4.43415577e+06,4.99999397e-01,-1.98978875e-14,-6.89955334e-01,3.54960681,7.84858656e-02,-1.34509848,1.44485229e-06,6.53723248,4.05643609e-01,-1
4.66456949e+06,4.99999393e-01,-1.88903403e-14,-7.05539493e-01,3.54919500,7.15174143e-02,-1.34509848,1.41009064e-06,6.54404722,4.26182093e-01,-1
4.90699868e+06,4.99999388e-01,-1.79357576e-14,-7.21083640e-01,3.54878901,6.45573067e-02,-1.34509848,1.37657564e-06,6.55085372,4.46697639e-01,-1
5.16202176e+06,4.99999384e-01,-1.70306212e-14,-7.36601737e-01,3.54838556,5.76051578e-02,-1.34509849,1.34427990e-06,6.55765163,4.67192290e-01,-1
5.43033726e+06,4.99999379e-01,-1.61735931e-14,-7.52056254e-01,3.54799534,5.06583514e-02,-1.34509849,1.31324545e-06,6.56444394,4.87673725e-01,-1
5.71267305e+06,4.99999375e-01,-1.53614821e-14,-7.67466101e-01,3.54761356,4.37169872e-02,-1.34509850,1.28339557e-06,6.57123153,5.08146733e-01,-1
6.00972558e+06,4.99999371e-01,-1.45918251e-14,-7.82827711e-01,3.54724148,3.67803361e-02,-1.34509851,1.25469723e-06,6.57801448,5.28615154e-01,-1
6.32234125e+06,4.99999366e-01,-1.38624757e-14,-7.98146812e-01,3.54687800,2.98477374e-02,-1.34509853,1.22709435e-06,6.58479469,5.49070692e-01,-1
6.65133043e+06,4.99999362e-01,-1.31710622e-14,-8.13420499e-01,3.54652411,2.29186849e-02,-1.34509855,1.20053202e-06,6.59155374,5.69488190e-01,-1
6.99754694e+06,4.99999357e-01,-1.25156044e-14,-8.28648686e-01,3.54618064,1.59915245e-02,-1.34509857,1.17496452e-06,6.59827123,5.89837909e-01,-1
7.36178047e+06,4.99999353e-01,-1.18938143e-14,-8.43839904e-01,3.54584477,9.06766825e-03,-1.34509861,1.15028808e-06,6.60500270,6.10203091e-01,-1
