star_age,star_mass,star_mdot,log_L,log_Teff,log_R,log_surf_z,v_wind_Km_per_s,log_center_T,log_center_Rho,phase,x
1.06526761e+03,2.49999983,-1.36623132e-10,2.39326113,3.59351573,1.53227626,-1.34509847,9.49594975e-05,5.79701825,-3.18757645,-1,-1.0
1.11713382e+03,2.49999983,-1.34976230e-10,2.38997759,3.59380642,1.53005310,-1.34509847,9.51111677e-05,5.79913893,-3.18121023,-1,-0.9999906085930328
1.17145518e+03,2.49999982,-1.33250759e-10,2.38657687,3.59410572,1.52775415,-1.34509847,9.52334198e-05,5.80133237,-3.17462405,-1,-0.9999807726324185
1.22835629e+03,2.49999981,-1.31471141e-10,2.38305871,3.59441439,1.52537772,-1.34509847,9.53435621e-05,5.80359996,-3.16781554,-1,-0.9999704695568535
1.28797348e+03,2.49999981,-1.29647159e-10,2.37939854,3.59472726,1.52292191,-1.34509847,9.54382120e-05,5.80594342,-3.16077804,-1,-0.999959674681085
1.35044750e+03,2.49999980,-1.27777518e-10,2.37561219,3.59504929,1.52038466,-1.34509847,9.55234835e-05,5.80836487,-3.15350554,-1,-0.9999483625195313
1.41591725e+03,2.49999979,-1.25871483e-10,2.37169719,3.59538062,1.51776450,-1.34509847,9.56045451e-05,5.81086592,-3.14599370,-1,-0.99993650792159
1.48452512e+03,2.49999978,-1.23931621e-10,2.36777282,3.59575228,1.51505901,-1.34509847,9.57337121e-05,5.81344857,-3.13823550,-1,-0.9999240851047247
1.55639457e+03,2.49999977,-1.21997364e-10,2.36363654,3.59611334,1.51226875,-1.34509847,9.58554257e-05,5.81611293,-3.13023054,-1,-0.9999110717140517
1.63179179e+03,2.49999976,-1.20000591e-10,2.35932200,3.59647420,1.50938975,-1.34509847,9.59318238e-05,5.81886231,-3.12196778,-1,-0.9998974195505869
1.71103830e+03,2.49999975,-1.17964967e-10,2.35487023,3.59684760,1.50641707,-1.34509847,9.60009607e-05,5.82170184,-3.11343685,-1,-0.9998830703967516
1.79403208e+03,2.49999974,-1.15916202e-10,2.35040313,3.59726176,1.50335518,-1.34509847,9.61270210e-05,5.82462670,-3.10464586,-1,-0.9998680427252922
1.88088243e+03,2.49999973,-1.13859215e-10,2.34567628,3.59765456,1.50020618,-1.34509847,9.62107389e-05,5.82763559,-3.09560001,-1,-0.9998523167452736
1.97172912e+03,2.49999972,-1.11750490e-10,2.34087185,3.59807200,1.49696908,-1.34509847,9.62892977e-05,5.83072921,-3.08630049,-1,-0.9998358671485629
2.06735069e+03,2.49999971,-1.09641748e-10,2.33591161,3.59850111,1.49363074,-1.34509847,9.63813421e-05,5.83391997,-3.07670811,-1,-0.9998185529650373
2.16745507e+03,2.49999970,-1.07519420e-10,2.33086330,3.59895414,1.49020053,-1.34509847,9.64940719e-05,5.83719890,-3.06684844,-1,-0.9998004270797687
2.27199773e+03,2.49999969,-1.05374894e-10,2.32557707,3.59939090,1.48668388,-1.34509847,9.65538805e-05,5.84056095,-3.05673893,-1,-0.9997814975557974
2.38217957e+03,2.49999968,-1.03197813e-10,2.32018266,3.59985367,1.48306115,-1.34509847,9.66124795e-05,5.84402473,-3.04632127,-1,-0.9997615469463381
2.49716867e+03,2.49999967,-1.01043679e-10,2.31473765,3.60034777,1.47935044,-1.34509847,9.67296016e-05,5.84757257,-3.03564871,-1,-0.9997407258870223
2.61801944e+03,2.49999966,-9.88666154e-11,2.30909232,3.60084240,1.47553852,-1.34509847,9.68091115e-05,5.85121738,-3.02468223,-1,-0.9997188434559874
2.74428548e+03,2.49999964,-9.66930564e-11,2.30331165,3.60134824,1.47163650,-1.34509847,9.68928834e-05,5.85494910,-3.01345125,-1,-0.999695980482815
2.87702173e+03,2.49999963,-9.44895014e-11,2.29726074,3.60183706,1.46763341,-1.34509847,9.68989906e-05,5.85877806,-3.00192526,-1,-0.9996719459496758
3.01573538e+03,2.49999962,-9.22826933e-11,2.29126696,3.60238591,1.46353881,-1.34509847,9.69692332e-05,5.86269448,-2.99013228,-1,-0.9996468290896032
3.16134262e+03,2.49999961,-9.01119330e-11,2.28502135,3.60292130,1.45934522,-1.34509847,9.70303959e-05,5.86670722,-2.97804568,-1,-0.9996204640082099
3.31392398e+03,2.49999959,-8.79285735e-11,2.27864070,3.60347068,1.45505614,-1.34509847,9.70705626e-05,5.87081184,-2.96567765,-1,-0.9995928361239406
3.47360569e+03,2.49999958,-8.57449228e-11,2.27217143,3.60404441,1.45067405,-1.34509847,9.71145535e-05,5.87500639,-2.95303563,-1,-0.9995639225803477
3.64081622e+03,2.49999956,-8.35709613e-11,2.26540040,3.60458863,1.44620009,-1.34509847,9.70924428e-05,5.87929062,-2.94012508,-1,-0.9995336457944318
3.81639382e+03,2.49999955,-8.13906000e-11,2.25854445,3.60516066,1.44162805,-1.34509847,9.70629145e-05,5.88366911,-2.92692479,-1,-0.9995018539843896
4.00026938e+03,2.49999953,-7.92434589e-11,2.25165929,3.60577211,1.43696258,-1.34509847,9.70877715e-05,5.88813796,-2.91345409,-1,-0.9994685596639585
4.19282973e+03,2.49999952,-7.71310997e-11,2.24454554,3.60637209,1.43220574,-1.34509847,9.70959519e-05,5.89269572,-2.89971107,-1,-0.9994336927898877
4.39455697e+03,2.49999950,-7.50015677e-11,2.23729246,3.60698131,1.42736077,-1.34509847,9.70471720e-05,5.89725489,-2.88585980,-1,-0.9993971660684015
4.60586920e+03,2.49999949,-7.29018271e-11,2.22984569,3.60758692,1.42242615,-1.34509847,9.69808886e-05,5.90193950,-2.87168173,-1,-0.9993589037941948
4.82726117e+03,2.49999947,-7.08102752e-11,2.22232060,3.60821883,1.41739980,-1.34509847,9.69071726e-05,5.90675587,-2.85715053,-1,-0.9993188163829583
5.05924541e+03,2.49999946,-6.87849025e-11,2.21479250,3.60889565,1.41228210,-1.34509847,9.69276743e-05,5.91165951,-2.84235584,-1,-0.9992768110309609
5.30224155e+03,2.49999944,-6.67610760e-11,2.20705556,3.60956361,1.40707771,-1.34509847,9.68782356e-05,5.91664982,-2.82730137,-1,-0.9992328117558604
5.55671685e+03,2.49999942,-6.47573430e-11,2.19904764,3.61020594,1.40178909,-1.34509847,9.67606901e-05,5.92172694,-2.81198514,-1,-0.999186733950958
5.82324229e+03,2.49999941,-6.27731745e-11,2.19092298,3.61086072,1.39641720,-1.34509847,9.66216876e-05,5.92688480,-2.79642567,-1,-0.9991384742289896
6.10238453e+03,2.49999939,-6.08199162e-11,2.18277397,3.61155087,1.39096240,-1.34509847,9.65036542e-05,5.93212335,-2.78061924,-1,-0.9990879299849127
6.39489530e+03,2.49999937,-5.89185779e-11,2.17439575,3.61222437,1.38542629,-1.34509847,9.63728176e-05,5.93744326,-2.76456663,-1,-0.9990349651030875
6.70154091e+03,2.49999936,-5.70561335e-11,2.16604847,3.61294755,1.37980628,-1.34509847,9.62912461e-05,5.94284594,-2.74826403,-1,-0.9989794408278759
7.02250650e+03,2.49999934,-5.52073296e-11,2.15747819,3.61365267,1.37411090,-1.34509847,9.61311913e-05,5.94832302,-2.73173464,-1,-0.9989213236360055
7.35839649e+03,2.49999932,-5.33940440e-11,2.14872308,3.61434845,1.36834180,-1.34509847,9.59391372e-05,5.95387265,-2.71498524,-1,-0.9988605040852362
7.71062978e+03,2.49999930,-5.16153893e-11,2.13984637,3.61505198,1.36249639,-1.34509847,9.57301371e-05,5.95949885,-2.69800769,-1,-0.9987967252555551
8.07952845e+03,2.49999928,-4.98845128e-11,2.13099374,3.61579893,1.35657616,-1.34509847,9.55728183e-05,5.96519965,-2.68080678,-1,-0.9987299288279842
8.46546031e+03,2.49999926,-4.81915539e-11,2.12199034,3.61654325,1.35058582,-1.34509847,9.53954757e-05,5.97097166,-2.66339613,-1,-0.9986600482032214
8.87033461e+03,2.49999924,-4.65278959e-11,2.11280438,3.61727764,1.34452406,-1.34509847,9.51657419e-05,5.97681628,-2.64577434,-1,-0.9985867376736518
9.29383229e+03,2.49999923,-4.49192572e-11,2.10364078,3.61805194,1.33839366,-1.34509847,9.50007577e-05,5.98273010,-2.62794902,-1,-0.9985100550114222
9.73780503e+03,2.49999921,-4.33348194e-11,2.09427218,3.61880814,1.33219696,-1.34509847,9.47631766e-05,5.98871070,-2.60992160,-1,-0.9984296649331093
1.02022880e+04,2.49999919,-4.17963898e-11,2.08482826,3.61957730,1.32593669,-1.34509847,9.45403018e-05,5.99475526,-2.59170070,-1,-0.9983455610704863
1.06891705e+04,2.49999917,-4.02903617e-11,2.07516559,3.62032225,1.31961545,-1.34509847,9.42552513e-05,6.00086234,-2.57329560,-1,-0.9982574013282819
1.11985732e+04,2.49999915,-3.88352383e-11,2.06564042,3.62113304,1.31323127,-1.34509847,9.40561411e-05,6.00703304,-2.55470096,-1,-0.998165163856797
1.17326871e+04,2.49999913,-3.74104845e-11,2.05578127,3.62188890,1.30678998,-1.34509847,9.37570800e-05,6.01326374,-2.53593573,-1,-0.998068451931986
1.22915995e+04,2.49999911,-3.60274232e-11,2.04595667,3.62268185,1.30029179,-1.34509847,9.34913670e-05,6.01955231,-2.51700009,-1,-0.9979672497464508
1.28769086e+04,2.49999909,-3.46850217e-11,2.03599694,3.62346790,1.29373982,-1.34509847,9.32076816e-05,6.02589588,-2.49790408,-1,-0.9978612679143539
1.34902688e+04,2.49999906,-3.33838131e-11,2.02598975,3.62426874,1.28713455,-1.34509847,9.29310564e-05,6.03229421,-2.47864256,-1,-0.9977502068737323
1.41322426e+04,2.49999904,-3.21231856e-11,2.01596044,3.62508944,1.28047850,-1.34509847,9.26704559e-05,6.03874503,-2.45922572,-1,-0.9976339647727942
1.48043204e+04,2.49999902,-3.08891341e-11,2.00571684,3.62587910,1.27377738,-1.34509847,9.23313222e-05,6.04524348,-2.43967019,-1,-0.9975122717450322
1.55089346e+04,2.49999900,-2.97090749e-11,1.99556326,3.62671632,1.26702613,-1.34509847,9.20742986e-05,6.05179339,-2.41996541,-1,-0.9973846873561384
1.62462206e+04,2.49999898,-2.85609838e-11,1.98514440,3.62750699,1.26023536,-1.34509847,9.17441899e-05,6.05838489,-2.40013800,-1,-0.9972511870892549
1.70180593e+04,2.49999896,-2.74416207e-11,1.97465270,3.62829851,1.25340649,-1.34509847,9.13758870e-05,6.06501594,-2.38019694,-1,-0.997111430370097
1.78263697e+04,2.49999894,-2.63697897e-11,1.96415664,3.62910795,1.24653957,-1.34509847,9.10499712e-05,6.07168655,-2.36013668,-1,-0.9969650697256187
1.86734828e+04,2.49999892,-2.53249249e-11,1.95356723,3.62991005,1.23964067,-1.34509847,9.06702315e-05,6.07839119,-2.33998061,-1,-0.9968116830819953
1.95604776e+04,2.49999889,-2.43237584e-11,1.94294834,3.63071989,1.23271155,-1.34509847,9.03151668e-05,6.08512848,-2.31972746,-1,-0.9966510750648564
2.04893281e+04,2.49999887,-2.33555598e-11,1.93232497,3.63154143,1.22575678,-1.34509847,8.99519257e-05,6.09189362,-2.29939596,-1,-0.996482888242314
2.14620246e+04,2.49999885,-2.24284273e-11,1.92168044,3.63236854,1.21878028,-1.34509847,8.96080578e-05,6.09868270,-2.27899396,-1,-0.9963067622310421
2.24806130e+04,2.49999883,-2.15329656e-11,1.91098179,3.63318931,1.21178943,-1.34509847,8.92385303e-05,6.10548826,-2.25854191,-1,-0.9961223265802301
2.35473928e+04,2.49999880,-2.06727456e-11,1.90027697,3.63401250,1.20479064,-1.34509847,8.88672337e-05,6.11230391,-2.23806186,-1,-0.9959291649197538
2.46652279e+04,2.49999878,-1.98404796e-11,1.88951401,3.63481974,1.19779468,-1.34509847,8.84458723e-05,6.11911924,-2.21758610,-1,-0.9957267586836639
2.58361879e+04,2.49999876,-1.90469681e-11,1.87873683,3.63561717,1.19081123,-1.34509847,8.80311508e-05,6.12592513,-2.19714260,-1,-0.9955147331297948
2.70628890e+04,2.49999874,-1.82869004e-11,1.86800977,3.63641486,1.18385231,-1.34509847,8.76110991e-05,6.13270995,-2.17676534,-1,-0.9952926145431996
2.83481576e+04,2.49999871,-1.75629430e-11,1.85736850,3.63721465,1.17693210,-1.34509847,8.72024522e-05,6.13945932,-2.15649958,-1,-0.9950598911480489
2.96949788e+04,2.49999869,-1.68723389e-11,1.84685368,3.63801771,1.17006857,-1.34509847,8.67941887e-05,6.14615575,-2.13639747,-1,-0.9948160224327276
3.11061485e+04,2.49999867,-1.62145933e-11,1.83639535,3.63879484,1.16328515,-1.34509847,8.63620516e-05,6.15277659,-2.11652251,-1,-0.9945605021440365
3.25847870e+04,2.49999864,-1.55891986e-11,1.82598130,3.63952893,1.15660994,-1.34509847,8.58912072e-05,6.15929403,-2.09696173,-1,-0.9942927652897162
3.41373696e+04,2.49999862,-1.49984372e-11,1.81598191,3.64029850,1.15007110,-1.34509847,8.54507228e-05,6.16568061,-2.07779446,-1,-0.9940116393881546
3.57650776e+04,2.49999860,-1.44538182e-11,1.80619437,3.64103803,1.14369827,-1.34509847,8.50657777e-05,6.17190759,-2.05910939,-1,-0.9937169105415354
3.74710767e+04,2.49999857,-1.39392286e-11,1.79663572,3.64173473,1.13752554,-1.34509847,8.46395889e-05,6.17794178,-2.04100766,-1,-0.9934080055370282
3.92630324e+04,2.49999855,-1.34590054e-11,1.78742015,3.64239523,1.13159676,-1.34509847,8.41969266e-05,6.18374012,-2.02362056,-1,-0.9930835363836827
4.11419299e+04,2.49999852,-1.30173614e-11,1.77861760,3.64302740,1.12593116,-1.34509847,8.37848027e-05,6.18928279,-2.00700429,-1,-0.9927433246914807
4.31162268e+04,2.49999850,-1.26106842e-11,1.77027772,3.64362534,1.12056532,-1.34509847,8.33767559e-05,6.19453364,-1.99126467,-1,-0.9923858390440422
4.51870551e+04,2.49999847,-1.22405382e-11,1.76247365,3.64420819,1.11549759,-1.34509847,8.30170524e-05,6.19949378,-1.97639663,-1,-0.9920108744702947
4.73596385e+04,2.49999845,-1.18989007e-11,1.75497256,3.64471475,1.11073393,-1.34509847,8.26249810e-05,6.20415741,-1.96241553,-1,-0.9916174851156524
4.96408693e+04,2.49999842,-1.15876327e-11,1.74801712,3.64521623,1.10625325,-1.34509847,8.22790199e-05,6.20854505,-1.94926355,-1,-0.9912044229923747
5.20360554e+04,2.49999839,-1.13016236e-11,1.74149010,3.64570297,1.10201626,-1.34509847,8.19622731e-05,6.21269497,-1.93682725,-1,-0.9907707269997941
5.45492271e+04,2.49999837,-1.10385875e-11,1.73511463,3.64613489,1.09796468,-1.34509847,8.16664139e-05,6.21666434,-1.92493426,-1,-0.9903156673720862
5.71841992e+04,2.49999834,-1.07857228e-11,1.72893096,3.64655935,1.09402394,-1.34509847,8.13577668e-05,6.22052614,-1.91336604,-1,-0.9898385533639799
5.99436786e+04,2.49999831,-1.05424785e-11,1.72287534,3.64700095,1.09011292,-1.34509847,8.10773472e-05,6.22435936,-1.90188580,-1,-0.9893388948374926
6.28369549e+04,2.49999828,-1.03035030e-11,1.71664020,3.64742630,1.08614465,-1.34509847,8.07950841e-05,6.22824947,-1.89023702,-1,-0.9888150097261277
6.58717181e+04,2.49999825,-1.00601645e-11,1.71020135,3.64788250,1.08201282,-1.34509847,8.05028757e-05,6.23230095,-1.87810540,-1,-0.9882655056027232
6.90446526e+04,2.49999822,-9.80760754e-12,1.70329876,3.64834822,1.07763009,-1.34509847,8.01766841e-05,6.23659922,-1.86523629,-1,-0.9876909828224805
7.23635188e+04,2.49999818,-9.53971470e-12,1.69584620,3.64885589,1.07288847,-1.34509847,7.98086926e-05,6.24125058,-1.85131063,-1,-0.9870900362109203
7.58356651e+04,2.49999815,-9.25510338e-12,1.68774559,3.64944342,1.06766310,-1.34509847,7.94321549e-05,6.24637704,-1.83596404,-1,-0.9864613351943422
7.94629171e+04,2.49999812,-8.94249167e-12,1.67857684,3.65006256,1.06184044,-1.34509847,7.89415110e-05,6.25209097,-1.81886023,-1,-0.9858045492116246
8.32443318e+04,2.49999809,-8.60429787e-12,1.66833323,3.65075958,1.05532461,-1.34509847,7.83841026e-05,6.25848593,-1.79972009,-1,-0.985119849011638
8.71837237e+04,2.49999805,-8.24010701e-12,1.65692009,3.65155954,1.04801812,-1.34509847,7.77605917e-05,6.26565843,-1.77825273,-1,-0.9844065439034319
9.12809001e+04,2.49999802,-7.85267710e-12,1.64422429,3.65244639,1.03989651,-1.34509847,7.70550967e-05,6.27363300,-1.75438519,-1,-0.9836646687791666
9.55388395e+04,2.49999799,-7.44873421e-12,1.63032420,3.65340542,1.03102841,-1.34509847,7.62605153e-05,6.28234308,-1.72831744,-1,-0.9828936843222883
9.99708258e+04,2.49999796,-7.03906910e-12,1.61540201,3.65439526,1.02158764,-1.34509847,7.53687167e-05,6.29161859,-1.70056422,-1,-0.9820911852189902
1.04593055e+05,2.49999792,-6.64270298e-12,1.60007479,3.65543724,1.01184007,-1.34509847,7.44887722e-05,6.30119840,-1.67190257,-1,-0.9812542388619497
1.09424534e+05,2.49999789,-6.26589615e-12,1.58461162,3.65648098,1.00202100,-1.34509847,7.35970076e-05,6.31085137,-1.64302473,-1,-0.9803794036745974
1.14481189e+05,2.49999786,-5.91197366e-12,1.56916462,3.65749728,9.92264909e-01,-1.34509847,7.26950825e-05,6.32044578,-1.61432576,-1,-0.9794637959022566
1.19777099e+05,2.49999783,-5.58258768e-12,1.55386278,3.65850021,9.82608118e-01,-1.34509847,7.18182535e-05,6.32995010,-1.58589471,-1,-0.9785048662624815
1.25321878e+05,2.49999780,-5.27204163e-12,1.53866269,3.65947588,9.73056737e-01,-1.34509847,7.09100502e-05,6.33949520,-1.55750902,-1,-0.9775008739497151
1.31132152e+05,2.49999777,-4.98465005e-12,1.52365939,3.66045003,9.63606787e-01,-1.34509847,7.00573678e-05,6.34879569,-1.52969134,-1,-0.9764488084965984
1.37215761e+05,2.49999774,-4.71335852e-12,1.50870039,3.66138607,9.54255206e-01,-1.34509847,6.91754572e-05,6.35800092,-1.50216110,-1,-0.9753472503154921
1.43589917e+05,2.49999772,-4.45950757e-12,1.49400430,3.66234594,9.44987422e-01,-1.34509847,6.83208181e-05,6.36712434,-1.47487573,-1,-0.9741930828321038
1.50261328e+05,2.49999769,-4.22125871e-12,1.47925965,3.66325027,9.35806446e-01,-1.34509847,6.74641581e-05,6.37616393,-1.44783736,-1,-0.9729850914298666
1.57246496e+05,2.49999766,-3.99671714e-12,1.46460181,3.66413631,9.26705441e-01,-1.34509847,6.66035838e-05,6.38512713,-1.42102498,-1,-0.9717202880940832
1.64566110e+05,2.49999763,-3.78590705e-12,1.45013688,3.66503398,9.17677639e-01,-1.34509847,6.57604061e-05,6.39402057,-1.39442669,-1,-0.9703949266705859
1.72230557e+05,2.49999760,-3.58758165e-12,1.43570078,3.66590214,9.08723265e-01,-1.34509847,6.49224211e-05,6.40284348,-1.36803695,-1,-0.9690071263868224
1.80259634e+05,2.49999757,-3.40187263e-12,1.42152620,3.66680588,8.99828491e-01,-1.34509847,6.41239275e-05,6.41160964,-1.34181736,-1,-0.9675533026029332
1.88660294e+05,2.49999755,-3.22583363e-12,1.40725721,3.66765190,8.91001958e-01,-1.34509847,6.33062374e-05,6.42031084,-1.31579514,-1,-0.9660321963402373
1.97463494e+05,2.49999752,-3.05996088e-12,1.39307662,3.66848875,8.82237959e-01,-1.34509847,6.24978690e-05,6.42895068,-1.28995396,-1,-0.9644382022193273
2.06680411e+05,2.49999749,-2.90349592e-12,1.37901017,3.66932560,8.73531045e-01,-1.34509847,6.17028783e-05,6.43753511,-1.26427191,-1,-0.9627692964224676
2.16325075e+05,2.49999746,-2.75533093e-12,1.36490856,3.67012414,8.64883143e-01,-1.34509847,6.09039954e-05,6.44606196,-1.23876147,-1,-0.9610229385396348
2.26435970e+05,2.49999744,-2.61611881e-12,1.35098219,3.67094194,8.56284371e-01,-1.34509847,6.01345459e-05,6.45454173,-1.21339278,-1,-0.9591921602786458
2.37017797e+05,2.49999741,-2.48390871e-12,1.33710480,3.67174659,8.47736369e-01,-1.34509847,5.93604402e-05,6.46297296,-1.18816908,-1,-0.9572761104301263
2.48097584e+05,2.49999738,-2.35943917e-12,1.32321667,3.67252364,8.39238209e-01,-1.34509847,5.86062917e-05,6.47135627,-1.16308857,-1,-0.9552698950381171
2.59709049e+05,2.49999736,-2.24229058e-12,1.30960154,3.67334989,8.30778145e-01,-1.34762249,5.76058998e-05,6.47966309,-1.13807438,-1,-0.9531674087893494
2.71854925e+05,2.49999733,-2.13121693e-12,1.29584492,3.67411683,8.22365954e-01,-1.34713758,5.69402847e-05,6.48780694,-1.11306010,-1,-0.9509681568199175
2.84573287e+05,2.49999731,-2.02498215e-12,1.28198467,3.67483267,8.14004143e-01,-1.34619052,5.62950288e-05,6.49578658,-1.08803231,-1,-0.9486652448952076
2.97889806e+05,2.49999728,-1.92447120e-12,1.26838150,3.67559429,8.05679312e-01,-1.34731814,5.54466034e-05,6.50362297,-1.06295078,-1,-0.9462540247710498
3.11832169e+05,2.49999725,-1.82961832e-12,1.25456877,3.67627777,7.97406003e-01,-1.34509854,5.49628679e-05,6.51131148,-1.03784180,-1,-0.9437294831664522
3.26429514e+05,2.49999723,-1.73984784e-12,1.24102309,3.67700994,7.89168809e-01,-1.34509858,5.42631264e-05,6.51887607,-1.01266057,-1,-0.941086344068068
3.41726541e+05,2.49999720,-1.65510638e-12,1.22753352,3.67773493,7.80974043e-01,-1.34509854,5.35803663e-05,6.52631313,-9.87406947e-01,-1,-0.938316513653514
3.57729028e+05,2.49999718,-1.57482058e-12,1.21403856,3.67843772,7.72820995e-01,-1.34509851,5.29075413e-05,6.53363286,-9.62078864e-01,-1,-0.9354189457011853
3.74501579e+05,2.49999715,-1.49872521e-12,1.20070600,3.67916171,7.64706730e-01,-1.34509860,5.22456477e-05,6.54084173,-9.36649386e-01,-1,-0.9323819423743651
3.92053858e+05,2.49999712,-1.42664253e-12,1.18740006,3.67987163,7.56633915e-01,-1.34509860,5.15946515e-05,6.54794474,-9.11122820e-01,-1,-0.9292037538140039
4.10431140e+05,2.49999710,-1.35832816e-12,1.17403718,3.68054402,7.48607694e-01,-1.34509856,5.09483512e-05,6.55494410,-8.85494975e-01,-1,-0.9258761820825533
4.29679433e+05,2.49999707,-1.29369056e-12,1.16084247,3.68123778,7.40622836e-01,-1.34509859,5.03189033e-05,6.56185396,-8.59746314e-01,-1,-0.9223908965182637
4.49824659e+05,2.49999705,-1.23211272e-12,1.14764028,3.68190608,7.32685142e-01,-1.34509869,4.96844651e-05,6.56867707,-8.33878598e-01,-1,-0.9187432034284323
4.70934699e+05,2.49999702,-1.17399747e-12,1.13454865,3.68257938,7.24792721e-01,-1.34509866,4.90693126e-05,6.57541929,-8.07867621e-01,-1,-0.914920811610437
4.93018951e+05,2.49999700,-1.11863553e-12,1.12141856,3.68321756,7.16951304e-01,-1.34509852,4.84496481e-05,6.58208039,-7.81725665e-01,-1,-0.9109220193698091
