star_age,star_mass,star_mdot,log_L,log_Teff,log_R,log_surf_z,v_wind_Km_per_s,log_center_T,log_center_Rho,phase
6.61218009e+02,4.39999971,-3.82580422e-10,2.85722951,3.59229215,1.76670760,-1.34509847,1.27534449e-04,5.79662905,-3.65008852,-1
6.92137110e+02,4.39999970,-3.82436145e-10,2.85410719,3.59258635,1.76455805,-1.34509847,1.29212613e-04,5.79870108,-3.64384896,-1
7.24418188e+02,4.39999969,-3.77800765e-10,2.85085957,3.59288381,1.76233931,-1.34509847,1.29412781e-04,5.80084035,-3.63740891,-1
7.58234991e+02,4.39999967,-3.73214266e-10,2.84748381,3.59318626,1.76004653,-1.34509847,1.29657558e-04,5.80305070,-3.63075095,-1
7.93627608e+02,4.39999966,-3.68422841e-10,2.84417698,3.59354422,1.75767720,-1.34509847,1.29971573e-04,5.80533416,-3.62387302,-1
8.30648716e+02,4.39999965,-3.63587338e-10,2.84061298,3.59387527,1.75523310,-1.34509847,1.30222134e-04,5.80769066,-3.61677451,-1
8.69373430e+02,4.39999963,-3.58497335e-10,2.83692761,3.59421437,1.75271222,-1.34509847,1.30411042e-04,5.81012114,-3.60945264,-1
9.09880806e+02,4.39999962,-3.53281352e-10,2.83320126,3.59458284,1.75011210,-1.34509847,1.30629475e-04,5.81262788,-3.60189916,-1
9.52245638e+02,4.39999960,-3.48032740e-10,2.82928706,3.59494382,1.74743305,-1.34509847,1.30826977e-04,5.81521099,-3.59411469,-1
9.96549751e+02,4.39999959,-3.42635778e-10,2.82528066,3.59532207,1.74467333,-1.34509847,1.31013721e-04,5.81787224,-3.58609388,-1
1.04302009e+03,4.39999957,-3.37172800e-10,2.82106845,3.59569207,1.74182723,-1.34509847,1.31161363e-04,5.82061734,-3.57781946,-1
1.09167161e+03,4.39999956,-3.31579016e-10,2.81681377,3.59609401,1.73889602,-1.34509847,1.31331251e-04,5.82344436,-3.56929683,-1
1.14254740e+03,4.39999954,-3.26015715e-10,2.81259339,3.59654732,1.73587920,-1.34509847,1.31627069e-04,5.82635367,-3.56052457,-1
1.19570945e+03,4.39999952,-3.20459120e-10,2.80809074,3.59697130,1.73277992,-1.34509847,1.31859402e-04,5.82934350,-3.55150766,-1
1.25123586e+03,4.39999951,-3.14730737e-10,2.80340166,3.59738996,1.72959807,-1.34509847,1.32007483e-04,5.83241379,-3.54224937,-1
1.30945366e+03,4.39999949,-3.08924331e-10,2.79868478,3.59784773,1.72632408,-1.34509847,1.32200515e-04,5.83557344,-3.53272047,-1
1.37043514e+03,4.39999947,-3.03126027e-10,2.79374378,3.59829422,1.72296059,-1.34509847,1.32363253e-04,5.83882014,-3.52292898,-1
1.43406573e+03,4.39999945,-2.97246817e-10,2.78889115,3.59880562,1.71951149,-1.34509847,1.32617543e-04,5.84214902,-3.51289034,-1
1.50072356e+03,4.39999943,-2.91496151e-10,2.78378084,3.59929839,1.71597080,-1.34509847,1.32875817e-04,5.84556767,-3.50258158,-1
1.57049328e+03,4.39999941,-2.85587273e-10,2.77850181,3.59979418,1.71233970,-1.34509847,1.33051390e-04,5.84907421,-3.49200831,-1
1.64329649e+03,4.39999939,-2.79620360e-10,2.77300934,3.60027843,1.70862496,-1.34509847,1.33156580e-04,5.85266223,-3.48118753,-1
1.71972064e+03,4.39999937,-2.73606479e-10,2.76757084,3.60082530,1.70481197,-1.34509847,1.33340099e-04,5.85634534,-3.47008014,-1
1.79942259e+03,4.39999935,-2.67789452e-10,2.76201600,3.60138574,1.70091368,-1.34509847,1.33623015e-04,5.86011134,-3.45871988,-1
1.88298554e+03,4.39999933,-2.61806584e-10,2.75615942,3.60191730,1.69692227,-1.34509847,1.33733524e-04,5.86396834,-3.44708464,-1
1.97028802e+03,4.39999930,-2.55819733e-10,2.75022717,3.60247366,1.69284342,-1.34509847,1.33857427e-04,5.86791027,-3.43519214,-1
2.06151928e+03,4.39999928,-2.49871435e-10,2.74412777,3.60303197,1.68867709,-1.34509847,1.33968762e-04,5.87193741,-3.42303984,-1
2.15717005e+03,4.39999926,-2.43893006e-10,2.73791580,3.60360889,1.68441728,-1.34509847,1.34056119e-04,5.87605459,-3.41061080,-1
2.25707393e+03,4.39999923,-2.38002956e-10,2.73174191,3.60423946,1.68006918,-1.34509847,1.34251238e-04,5.88025689,-3.39792249,-1
2.36142858e+03,4.39999921,-2.32139989e-10,2.72521917,3.60482493,1.67563688,-1.34509847,1.34328769e-04,5.88454141,-3.38497862,-1
2.47080491e+03,4.39999918,-2.26263180e-10,2.71860497,3.60543355,1.67111253,-1.34509847,1.34387399e-04,5.88891528,-3.37176702,-1
2.58515329e+03,4.39999916,-2.20399067e-10,2.71178920,3.60603427,1.66650321,-1.34509847,1.34382542e-04,5.89337227,-3.35829847,-1
2.70472253e+03,4.39999913,-2.14597647e-10,2.70507075,3.60670353,1.66180547,-1.34509847,1.34479843e-04,5.89791486,-3.34457239,-1
2.82972336e+03,4.39999911,-2.08957317e-10,2.69813517,3.60736129,1.65702216,-1.34509847,1.34594492e-04,5.90254149,-3.33059250,-1
2.96043738e+03,4.39999908,-2.03258201e-10,2.69107709,3.60803097,1.65215376,-1.34509847,1.34624597e-04,5.90725243,-3.31635794,-1
3.09710829e+03,4.39999905,-1.97661595e-10,2.68377091,3.60867981,1.64720299,-1.34509847,1.34613289e-04,5.91204531,-3.30187581,-1
3.24006234e+03,4.39999902,-1.92129145e-10,2.67647663,3.60937415,1.64216716,-1.34509847,1.34649499e-04,5.91692214,-3.28714561,-1
3.38954250e+03,4.39999900,-1.86620765e-10,2.66895103,3.61005060,1.63705146,-1.34509847,1.34589822e-04,5.92186482,-3.27220375,-1
3.54589407e+03,4.39999897,-1.81200978e-10,2.66140225,3.61076221,1.63185385,-1.34509847,1.34568178e-04,5.92685508,-3.25708273,-1
3.70941239e+03,4.39999894,-1.75934251e-10,2.65381106,3.61150352,1.62657565,-1.34509847,1.34620234e-04,5.93193788,-3.24171196,-1
3.88036146e+03,4.39999891,-1.70640845e-10,2.64598170,3.61222413,1.62121974,-1.34509847,1.34525622e-04,5.93713025,-3.22604294,-1
4.05906922e+03,4.39999888,-1.65464291e-10,2.63796883,3.61293644,1.61578870,-1.34509847,1.34411446e-04,5.94240251,-3.21014231,-1
4.24591347e+03,4.39999885,-1.60348557e-10,2.62993131,3.61368042,1.61028197,-1.34509847,1.34295147e-04,5.94775025,-3.19401833,-1
4.44117917e+03,4.39999882,-1.55360880e-10,2.62170183,3.61441250,1.60470306,-1.34509847,1.34162452e-04,5.95317128,-3.17767665,-1
4.64546859e+03,4.39999879,-1.50433396e-10,2.61363759,3.61522427,1.59904741,-1.34509847,1.34094635e-04,5.95866836,-3.16110632,-1
4.85916622e+03,4.39999876,-1.45687350e-10,2.60518997,3.61597501,1.59332212,-1.34509847,1.33979377e-04,5.96423411,-3.14433288,-1
5.08246641e+03,4.39999872,-1.40952932e-10,2.59664545,3.61673525,1.58752939,-1.34509847,1.33774574e-04,5.96986796,-3.12735639,-1
5.31571872e+03,4.39999869,-1.36309701e-10,2.58792489,3.61748359,1.58167241,-1.34509847,1.33518387e-04,5.97556712,-3.11018603,-1
5.55998051e+03,4.39999866,-1.31781215e-10,2.57942451,3.61832270,1.57574401,-1.34509847,1.33377252e-04,5.98133754,-3.09280612,-1
5.81518147e+03,4.39999863,-1.27418099e-10,2.57056288,3.61910228,1.56975403,-1.34509847,1.33190047e-04,5.98717193,-3.07523696,-1
6.08172300e+03,4.39999859,-1.23073006e-10,2.56168397,3.61990827,1.56370259,-1.34509847,1.32930932e-04,5.99306870,-3.05748712,-1
6.36087847e+03,4.39999856,-1.18892695e-10,2.55268659,3.62071631,1.55758783,-1.34509847,1.32711255e-04,5.99902972,-3.03955077,-1
6.65233296e+03,4.39999853,-1.14794617e-10,2.54362993,3.62153838,1.55141535,-1.34509847,1.32468705e-04,6.00504846,-3.02144115,-1
6.95730685e+03,4.39999849,-1.10794328e-10,2.53453242,3.62238001,1.54518335,-1.34509847,1.32220362e-04,6.01112738,-3.00315378,-1
7.27593762e+03,4.39999846,-1.06900282e-10,2.52535517,3.62322921,1.53889632,-1.34509847,1.31964664e-04,6.01726163,-2.98470197,-1
7.60911138e+03,4.39999842,-1.03134728e-10,2.51593834,3.62404455,1.53255722,-1.34509847,1.31673903e-04,6.02344871,-2.96609401,-1
7.95726683e+03,4.39999839,-9.94399975e-11,2.50655054,3.62489336,1.52616570,-1.34509847,1.31369337e-04,6.02968856,-2.94732497,-1
8.32146820e+03,4.39999835,-9.58409651e-11,2.49702194,3.62573213,1.51972387,-1.34509847,1.31019810e-04,6.03598004,-2.92840217,-1
8.70181280e+03,4.39999832,-9.23917476e-11,2.48754596,3.62660983,1.51323046,-1.34509847,1.30774276e-04,6.04232340,-2.90932616,-1
9.09997434e+03,4.39999828,-8.90136345e-11,2.47788445,3.62746527,1.50668883,-1.34509847,1.30436100e-04,6.04871641,-2.89010795,-1
9.51573061e+03,4.39999825,-8.57100278e-11,2.46809019,3.62830874,1.50010478,-1.34509847,1.30030330e-04,6.05515289,-2.87076292,-1
9.95047384e+03,4.39999821,-8.25182378e-11,2.45834652,3.62918771,1.49347499,-1.34509847,1.29668302e-04,6.06163608,-2.85128142,-1
1.04051274e+04,4.39999817,-7.94559358e-11,2.44846386,3.63005302,1.48680304,-1.34509847,1.29319714e-04,6.06816262,-2.83167213,-1
1.08800757e+04,4.39999814,-7.64551884e-11,2.43852473,3.63092352,1.48009248,-1.34509847,1.28905739e-04,6.07472860,-2.81194644,-1
1.13766510e+04,4.39999810,-7.35776108e-11,2.42853368,3.63180041,1.47334317,-1.34509847,1.28528087e-04,6.08133461,-2.79210210,-1
1.18960402e+04,4.39999806,-7.07817822e-11,2.41849330,3.63268383,1.46655614,-1.34509847,1.28118318e-04,6.08798036,-2.77214244,-1
1.24387075e+04,4.39999802,-6.80738102e-11,2.40838439,3.63356708,1.45973519,-1.34509847,1.27684798e-04,6.09466293,-2.75207934,-1
1.30057454e+04,4.39999799,-6.54385389e-11,2.39821380,3.63445065,1.45288274,-1.34509847,1.27200662e-04,6.10137915,-2.73192376,-1
1.35989435e+04,4.39999795,-6.29247971e-11,2.38798423,3.63533516,1.44599895,-1.34509847,1.26759562e-04,6.10812863,-2.71167448,-1
1.42190412e+04,4.39999791,-6.04869115e-11,2.37770968,3.63622210,1.43908780,-1.34509847,1.26281583e-04,6.11490643,-2.69134495,-1
1.48671349e+04,4.39999787,-5.81271486e-11,2.36741512,3.63711606,1.43215260,-1.34509847,1.25778019e-04,6.12170913,-2.67094160,-1
1.55443241e+04,4.39999783,-5.58441876e-11,2.35697859,3.63798337,1.42519971,-1.34509847,1.25213742e-04,6.12853138,-2.65048297,-1
1.62525967e+04,4.39999780,-5.36702558e-11,2.34677998,3.63892204,1.41822306,-1.34509847,1.24762491e-04,6.13537965,-2.62995531,-1
1.69932052e+04,4.39999776,-5.15635543e-11,2.33629285,3.63979282,1.41123793,-1.34509847,1.24193924e-04,6.14223927,-2.60939797,-1
1.77675533e+04,4.39999772,-4.95308498e-11,2.32590622,3.64069300,1.40424426,-1.34509847,1.23622635e-04,6.14911000,-2.58881028,-1
1.85770316e+04,4.39999768,-4.75909256e-11,2.31550999,3.64159197,1.39724822,-1.34509847,1.23070730e-04,6.15598581,-2.56821243,-1
1.94230986e+04,4.39999764,-4.57122888e-11,2.30501829,3.64246272,1.39026085,-1.34509847,1.22438778e-04,6.16285536,-2.54764594,-1
2.03079467e+04,4.39999760,-4.39287849e-11,2.29469470,3.64336981,1.38328488,-1.34509847,1.21874652e-04,6.16971499,-2.52711634,-1
2.12331754e+04,4.39999756,-4.21995348e-11,2.28431227,3.64424766,1.37633798,-1.34509847,1.21212839e-04,6.17654741,-2.50667188,-1
2.22015602e+04,4.39999752,-4.05687335e-11,2.27406495,3.64513970,1.36943023,-1.34509847,1.20614934e-04,6.18334230,-2.48633942,-1
2.32142145e+04,4.39999748,-3.90012223e-11,2.26383018,3.64600588,1.36258048,-1.34509847,1.19954909e-04,6.19008133,-2.46617439,-1
2.42733826e+04,4.39999744,-3.75120483e-11,2.25369431,3.64685874,1.35580682,-1.34509847,1.19290224e-04,6.19674730,-2.44622900,-1
2.53812239e+04,4.39999740,-3.60982264e-11,2.24367125,3.64769059,1.34913159,-1.34509847,1.18610033e-04,6.20331821,-2.42656879,-1
2.65415653e+04,4.39999736,-3.47661684e-11,2.23397622,3.64854295,1.34257936,-1.34509847,1.17960983e-04,6.20976969,-2.40726827,-1
2.77561645e+04,4.39999732,-3.35058611e-11,2.22431443,3.64932499,1.33618438,-1.34509847,1.17255856e-04,6.21606734,-2.38843080,-1
2.90271706e+04,4.39999728,-3.23272516e-11,2.21503312,3.65011304,1.32996763,-1.34509847,1.16586085e-04,6.22219003,-2.37011894,-1
3.03593257e+04,4.39999724,-3.12242361e-11,2.20602578,3.65086074,1.32396856,-1.34509847,1.15898647e-04,6.22809922,-2.35244934,-1
3.17535644e+04,4.39999719,-3.01951799e-11,2.19731479,3.65156326,1.31820803,-1.34509847,1.15202904e-04,6.23377464,-2.33548257,-1
3.32158049e+04,4.39999715,-2.92528510e-11,2.18909346,3.65225517,1.31271354,-1.34509847,1.14568435e-04,6.23918866,-2.31929717,-1
3.47463192e+04,4.39999711,-2.83803773e-11,2.18123373,3.65290263,1.30748876,-1.34509847,1.13939604e-04,6.24433808,-2.30390463,-1
3.63491961e+04,4.39999706,-2.75792633e-11,2.17374121,3.65350533,1.30253710,-1.34509847,1.13340441e-04,6.24921903,-2.28931485,-1
3.80294374e+04,4.39999702,-2.68372134e-11,2.16659135,3.65406149,1.29784985,-1.34509847,1.12741789e-04,6.25383976,-2.27550442,-1
3.97896305e+04,4.39999697,-2.61658329e-11,2.16006548,3.65466424,1.29338141,-1.34509847,1.12269500e-04,6.25824472,-2.26233771,-1
4.16330718e+04,4.39999692,-2.55266398e-11,2.15358783,3.65518950,1.28909207,-1.34509847,1.11744610e-04,6.26247366,-2.24969826,-1
4.35638722e+04,4.39999687,-2.49196166e-11,2.14724256,3.65569186,1.28491471,-1.34509847,1.11228023e-04,6.26659259,-2.23738829,-1
4.55837729e+04,4.39999682,-2.43355451e-11,2.14093720,3.65618799,1.28076978,-1.34509847,1.10730218e-04,6.27067942,-2.22517298,-1
4.76952919e+04,4.39999677,-2.37587916e-11,2.13465080,3.65671456,1.27657344,-1.34509847,1.10235644e-04,6.27481703,-2.21280699,-1
4.99008406e+04,4.39999672,-2.31810573e-11,2.12801622,3.65722160,1.27224206,-1.34509847,1.09727146e-04,6.27908835,-2.20004013,-1
5.22101410e+04,4.39999667,-2.25846450e-11,2.12112113,3.65778883,1.26766006,-1.34509847,1.09190148e-04,6.28360683,-2.18653387,-1
5.46209872e+04,4.39999662,-2.19563114e-11,2.11362507,3.65837653,1.26273662,-1.34509847,1.08581865e-04,6.28846253,-2.17202161,-1
5.71361492e+04,4.39999656,-2.12920269e-11,2.10560513,3.65905609,1.25736753,-1.34509847,1.07931345e-04,6.29375816,-2.15619346,-1
5.97558648e+04,4.39999651,-2.05820409e-11,2.09659180,3.65975691,1.25145923,-1.34509847,1.07191130e-04,6.29958579,-2.13877328,-1
6.24881106e+04,4.39999645,-1.98153248e-11,2.08677936,3.66059067,1.24488549,-1.34509847,1.06347953e-04,6.30607018,-2.11938973,-1
6.53254811e+04,4.39999640,-1.89949014e-11,2.07574838,3.66146078,1.23762978,-1.34509847,1.05368179e-04,6.31322767,-2.09799620,-1
6.82741146e+04,4.39999634,-1.81347799e-11,2.06354632,3.66239760,1.22965511,-1.34509847,1.04300417e-04,6.32109546,-2.07447655,-1
7.13357980e+04,4.39999629,-1.72438046e-11,2.05054740,3.66345845,1.22103396,-1.34516225,1.03111272e-04,6.32894521,-2.04743564,-1
7.45101003e+04,4.39999624,-1.63625627e-11,2.03719408,3.66460613,1.21206193,-1.34548643,1.01831697e-04,6.33513344,-2.01417608,-1
7.78263778e+04,4.39999619,-1.55377433e-11,2.02368666,3.66572027,1.20307994,-1.34555369,1.00677232e-04,6.34198735,-1.98108286,-1
8.12936717e+04,4.39999613,-1.47556230e-11,2.01030496,3.66684394,1.19414176,-1.34553240,9.95351383e-05,6.34918207,-1.94871146,-1
8.49186943e+04,4.39999608,-1.40242563e-11,1.99708453,3.66797723,1.18526496,-1.34550456,9.84551400e-05,6.35663644,-1.91681242,-1
8.87057802e+04,4.39999603,-1.33276180e-11,1.98378925,3.66905145,1.17646887,-1.34548458,9.73297633e-05,6.36424972,-1.88530294,-1
9.26690332e+04,4.39999598,-1.26734283e-11,1.97071887,3.67014118,1.16775422,-1.34547476,9.62341031e-05,6.37197371,-1.85409006,-1
9.68112979e+04,4.39999593,-1.20587241e-11,1.95774067,3.67121090,1.15912568,-1.34547026,9.51689123e-05,6.37977025,-1.82312578,-1
1.01142260e+05,4.39999588,-1.14816189e-11,1.94501945,3.67230338,1.15058012,-1.34563047,9.41144450e-05,6.38762059,-1.79235216,-1
1.05672056e+05,4.39999583,-1.09367062e-11,1.93231612,3.67335293,1.14212934,-1.34565826,9.30902078e-05,6.39550286,-1.76176442,-1
1.10409531e+05,4.39999578,-1.04252692e-11,1.91996231,3.67444783,1.13376264,-1.34565008,9.21201703e-05,6.40341414,-1.73129543,-1
1.15361499e+05,4.39999573,-9.94326895e-12,1.90766473,3.67551071,1.12548810,-1.34564208,9.11735982e-05,6.41133762,-1.70094028,-1
1.20540995e+05,4.39999568,-9.48699722e-12,1.89547389,3.67655233,1.11730943,-1.34560564,9.02349861e-05,6.41926203,-1.67067308,-1
1.25955582e+05,4.39999563,-9.05936130e-12,1.88356442,3.67762055,1.10921827,-1.34585373,8.92984573e-05,6.42718962,-1.64045161,-1
1.31622353e+05,4.39999558,-8.65705343e-12,1.87187181,3.67869772,1.10121761,-1.34586421,8.84382234e-05,6.43511990,-1.61025317,-1
1.37541565e+05,4.39999553,-8.27348676e-12,1.86015439,3.67971965,1.09331506,-1.34588690,8.75562046e-05,6.44304612,-1.58008543,-1
1.43736414e+05,4.39999548,-7.91333271e-12,1.84867925,3.68075467,1.08550743,-1.34589020,8.67174775e-05,6.45097710,-1.54991312,-1
1.50214076e+05,4.39999543,-7.57679870e-12,1.83752587,3.68182591,1.07778826,-1.34613098,8.59000921e-05,6.45891737,-1.51970319,-1
1.56987491e+05,4.39999538,-7.25564217e-12,1.82645210,3.68286779,1.07016762,-1.34623643,8.50866326e-05,6.46686216,-1.48945244,-1
1.64075641e+05,4.39999533,-6.95805377e-12,1.81579646,3.68397015,1.06263508,-1.34629431,8.43727807e-05,6.47481917,-1.45911233,-1
1.71480667e+05,4.39999528,-6.67223065e-12,1.80507650,3.68500478,1.05520585,-1.34631052,8.36270378e-05,6.48277708,-1.42870164,-1
1.79231643e+05,4.39999523,-6.40373528e-12,1.79464771,3.68606064,1.04787973,-1.34623082,8.29320771e-05,6.49074478,-1.39816994,-1
1.87336851e+05,4.39999518,-6.15114931e-12,1.78446825,3.68712692,1.04065743,-1.34628743,8.22455095e-05,6.49872573,-1.36749842,-1
1.95812369e+05,4.39999513,-5.91464823e-12,1.77464941,3.68823082,1.03354022,-1.34661624,8.15582147e-05,6.50672327,-1.33666052,-1
2.04679389e+05,4.39999508,-5.69013383e-12,1.76492186,3.68929850,1.02654108,-1.34636857,8.09674276e-05,6.51473410,-1.30564498,-1
2.13956410e+05,4.39999502,-5.48049063e-12,1.75561843,3.69041251,1.01966135,-1.34671329,8.03225663e-05,6.52276881,-1.27440277,-1
2.23655602e+05,4.39999497,-5.28283995e-12,1.74647945,3.69150196,1.01291295,-1.34667307,7.97604977e-05,6.53082309,-1.24292250,-1
2.33799581e+05,4.39999492,-5.09756954e-12,1.73770816,3.69261500,1.00630123,-1.34624189,7.92934425e-05,6.53890502,-1.21117300,-1
2.44419219e+05,4.39999487,-4.92506762e-12,1.72943922,3.69377683,9.99843111e-01,-1.34692361,7.86769445e-05,6.54702491,-1.17911562,-1
2.55526639e+05,4.39999481,-4.76454485e-12,1.72142432,3.69492211,9.93545081e-01,-1.34689784,7.82199905e-05,6.55519108,-1.14673099,-1
2.67146311e+05,4.39999476,-4.61634485e-12,1.71400272,3.69612943,9.87419652e-01,-1.34694271,7.77986579e-05,6.56342021,-1.11397965,-1
2.79300257e+05,4.39999470,-4.47832351e-12,1.70695755,3.69733290,9.81490132e-01,-1.34758172,7.73003050e-05,6.57172197,-1.08083078,-1
2.92015258e+05,4.39999465,-4.35301885e-12,1.70057811,3.69859549,9.75775220e-01,-1.34725371,7.70233131e-05,6.58011089,-1.04724456,-1
3.05316431e+05,4.39999459,-4.23800497e-12,1.69469836,3.69986023,9.70305873e-01,-1.34629516,7.68764417e-05,6.58859866,-1.01318840,-1
3.19231135e+05,4.39999453,-4.13592070e-12,1.68958773,3.70118090,9.65109215e-01,-1.34791452,7.63765408e-05,6.59720159,-9.78609122e-01,-1
3.33787380e+05,4.39999447,-4.04704665e-12,1.68542481,3.70258338,9.60222801e-01,-1.34821499,7.61637388e-05,6.60593876,-9.43452786e-01,-1
3.49010980e+05,4.39999441,-3.97012553e-12,1.68198974,3.70399025,9.55691522e-01,-1.34722303,7.62172575e-05,6.61482886,-9.07669598e-01,-1
3.64919707e+05,4.39999435,-3.90687907e-12,1.67986034,3.70551435,9.51578626e-01,-1.34608256,7.63577750e-05,6.62388824,-8.71223945e-01,-1
3.81540711e+05,4.39999429,-3.86365612e-12,1.67907640,3.70714390,9.47927554e-01,-1.34916694,7.59927567e-05,6.63314836,-8.34039111e-01,-1
3.98901181e+05,4.39999422,-3.83422365e-12,1.67955413,3.70880965,9.44834910e-01,-1.34877955,7.62461761e-05,6.64263852,-7.96038728e-01,-1
4.16995488e+05,4.39999415,-3.82432104e-12,1.68184837,3.71059643,9.42408479e-01,-1.34887611,7.65428770e-05,6.65237655,-7.57204662e-01,-1
4.35813395e+05,4.39999408,-3.83953138e-12,1.68624319,3.71252982,9.40739103e-01,-1.34886616,7.70600101e-05,6.66239070,-7.17497515e-01,-1
4.55334336e+05,4.39999400,-3.88340927e-12,1.69300023,3.71460959,9.39958082e-01,-1.34777860,7.79851706e-05,6.67270916,-6.76883596e-01,-1
4.75481656e+05,4.39999392,-3.96237988e-12,1.70262652,3.71690070,9.40189009e-01,-1.34934644,7.87598177e-05,6.68332844,-6.35447875e-01,-1
4.96153042e+05,4.39999384,-4.08447580e-12,1.71532358,3.71942554,9.41487853e-01,-1.34939840,8.01885969e-05,6.69441140,-5.92914321e-01,-1
5.17284952e+05,4.39999375,-4.25322002e-12,1.73105947,3.72217033,9.43866233e-01,-1.34829651,8.22474773e-05,6.70566213,-5.49835431e-01,-1
5.38775277e+05,4.39999366,-4.47078583e-12,1.74964366,3.72520837,9.47082245e-01,-1.34707287,8.48360394e-05,6.71711181,-5.06502277e-01,-1
5.60657874e+05,4.39999356,-4.72490443e-12,1.76991235,3.72853844,9.50556452e-01,-1.34603003,8.78666713e-05,6.72929233,-4.61619395e-01,-1
5.83143247e+05,4.39999345,-4.99486498e-12,1.79053225,3.73216878,9.53605716e-01,-1.34549641,9.12071278e-05,6.74190633,-4.15350041e-01,-1
6.06339430e+05,4.39999333,-5.26696157e-12,1.81087591,3.73608119,9.55952726e-01,-1.34795196,9.43885757e-05,6.75515743,-3.67315074e-01,-1
