star_age,star_mass,star_mdot,log_L,log_Teff,log_R,log_surf_z,v_wind_Km_per_s,log_center_T,log_center_Rho,phase,x
5.76997600e+02,5.19999966,-5.14468163e-10,2.98413463,3.58996358,1.83481731,-1.34509847,1.19301786e-04,5.79643692,-3.78094118,-1,-1.0
6.03140659e+02,5.19999965,-5.08559634e-10,2.98626977,3.59161406,1.83258393,-1.34509847,1.34444948e-04,5.79844056,-3.77490821,-1,-0.9999743683147136
6.30430115e+02,5.19999963,-5.06901947e-10,2.98443637,3.59224709,1.83040115,-1.34509847,1.39751269e-04,5.80051090,-3.76866945,-1,-0.9999476126566313
6.58978584e+02,5.19999962,-5.02322518e-10,2.98117347,3.59253779,1.82818830,-1.34509847,1.40379614e-04,5.80265162,-3.76221807,-1,-0.9999196226125887
6.88858151e+02,5.19999960,-4.96015566e-10,2.97784702,3.59284905,1.82590256,-1.34509847,1.40602732e-04,5.80486274,-3.75555285,-1,-0.9998903275076113
7.20081188e+02,5.19999959,-4.89774920e-10,2.97457540,3.59321047,1.82354392,-1.34509847,1.40980186e-04,5.80714380,-3.74867569,-1,-0.9998597152117025
7.52702885e+02,5.19999957,-4.83428006e-10,2.97115060,3.59356995,1.82111256,-1.34509847,1.41336318e-04,5.80949551,-3.74158565,-1,-0.9998277316144114
7.86787098e+02,5.19999956,-4.76844381e-10,2.96753590,3.59391876,1.81860758,-1.34509847,1.41607969e-04,5.81191891,-3.73427879,-1,-0.9997943141087993
8.22403471e+02,5.19999954,-4.70014109e-10,2.96383747,3.59428458,1.81602673,-1.34509847,1.41857420e-04,5.81441579,-3.72674815,-1,-0.9997593944131439
8.59617394e+02,5.19999952,-4.63091524e-10,2.95999673,3.59465300,1.81336952,-1.34509847,1.42092985e-04,5.81698697,-3.71899277,-1,-0.9997229084165126
8.98493917e+02,5.19999950,-4.56021198e-10,2.95598084,3.59501594,1.81063569,-1.34509847,1.42275586e-04,5.81963282,-3.71101210,-1,-0.9996847923413216
9.39103517e+02,5.19999949,-4.48789943e-10,2.95192805,3.59540898,1.80782321,-1.34509847,1.42483557e-04,5.82235433,-3.70280223,-1,-0.9996449770891429
9.81506873e+02,5.19999947,-4.41566776e-10,2.94771850,3.59580193,1.80493254,-1.34509847,1.42695768e-04,5.82515210,-3.69436183,-1,-0.9996034031678936
1.02594636e+03,5.19999945,-4.34210769e-10,2.94361716,3.59626626,1.80195322,-1.34509847,1.43034110e-04,5.82803473,-3.68566466,-1,-0.9995598329435724
1.07240866e+03,5.19999943,-4.26963122e-10,2.93915917,3.59668193,1.79889287,-1.34509847,1.43290657e-04,5.83099720,-3.67672356,-1,-0.9995142794736712
1.12089863e+03,5.19999941,-4.19450734e-10,2.93461442,3.59711600,1.79575236,-1.34509847,1.43498199e-04,5.83403758,-3.66754771,-1,-0.9994667379961958
1.17147576e+03,5.19999939,-4.11901993e-10,2.92991526,3.59755107,1.79253264,-1.34509847,1.43688119e-04,5.83715523,-3.65813791,-1,-0.9994171501848058
1.22434895e+03,5.19999937,-4.04249540e-10,2.92509159,3.59799707,1.78922880,-1.34509847,1.43856291e-04,5.84035472,-3.64847857,-1,-0.9993653112257089
1.27974514e+03,5.19999934,-3.96560521e-10,2.92020468,3.59847208,1.78583533,-1.34509847,1.44064589e-04,5.84364172,-3.63855776,-1,-0.9993109986179859
1.33745999e+03,5.19999932,-3.88954978e-10,2.91523218,3.59896564,1.78236196,-1.34509847,1.44330917e-04,5.84700647,-3.62840223,-1,-0.9992544127046254
1.39781244e+03,5.19999930,-3.81212313e-10,2.91005126,3.59944996,1.77880287,-1.34509847,1.44505407e-04,5.85045495,-3.61799475,-1,-0.9991952407842827
1.46092973e+03,5.19999927,-3.73494394e-10,2.90482994,3.59996820,1.77515571,-1.34509847,1.44743222e-04,5.85398912,-3.60732953,-1,-0.9991333581058475
1.52670633e+03,5.19999925,-3.65711410e-10,2.89939392,3.60047242,1.77142927,-1.34509847,1.44899929e-04,5.85760077,-3.59642915,-1,-0.9990688681350904
1.59563942e+03,5.19999923,-3.57896167e-10,2.89378108,3.60097766,1.76761237,-1.34509847,1.45014365e-04,5.86130101,-3.58526198,-1,-0.9990012834171468
1.66745538e+03,5.19999920,-3.50045828e-10,2.88816378,3.60152202,1.76371500,-1.34509847,1.45168041e-04,5.86507933,-3.57385766,-1,-0.9989308722198473
1.74266459e+03,5.19999917,-3.42385913e-10,2.88253727,3.60211021,1.75972536,-1.34509847,1.45457638e-04,5.86894705,-3.56218109,-1,-0.998857134146527
1.82112393e+03,5.19999915,-3.34652572e-10,2.87657289,3.60265405,1.75565551,-1.34509847,1.45583299e-04,5.87289375,-3.55026513,-1,-0.9987802095176739
1.90302114e+03,5.19999912,-3.26847100e-10,2.87051349,3.60321550,1.75150289,-1.34509847,1.45672607e-04,5.87692146,-3.53810504,-1,-0.9986999142655937
1.98875585e+03,5.19999909,-3.19105690e-10,2.86429171,3.60378024,1.74726254,-1.34509847,1.45747702e-04,5.88103457,-3.52568265,-1,-0.9986158565772856
2.07819263e+03,5.19999907,-3.11411035e-10,2.85825022,3.60443236,1.74293754,-1.34509847,1.45974204e-04,5.88522895,-3.51301483,-1,-0.9985281692336587
2.17151977e+03,5.19999904,-3.03902368e-10,2.85186675,3.60503940,1.73853174,-1.34509847,1.46143330e-04,5.88950337,-3.50010337,-1,-0.998436667627777
2.26922967e+03,5.19999901,-2.96277293e-10,2.84528958,3.60564103,1.73403987,-1.34509847,1.46185134e-04,5.89386188,-3.48693793,-1,-0.998340868991276
2.37120601e+03,5.19999898,-2.88687554e-10,2.83862719,3.60626154,1.72946768,-1.34509847,1.46219584e-04,5.89829906,-3.47353172,-1,-0.9982408873688676
2.47767713e+03,5.19999895,-2.81213639e-10,2.83193167,3.60691455,1.72481388,-1.34509847,1.46310396e-04,5.90281613,-3.45988598,-1,-0.9981364988870174
2.58883392e+03,5.19999892,-2.73783610e-10,2.82499305,3.60754596,1.72008175,-1.34509847,1.46311646e-04,5.90741087,-3.44600390,-1,-0.9980275163896467
2.70497560e+03,5.19999889,-2.66517068e-10,2.81826448,3.60827226,1.71526488,-1.34509847,1.46506578e-04,5.91208840,-3.43187214,-1,-0.9979136465096762
2.82622254e+03,5.19999885,-2.59318368e-10,2.81107620,3.60892125,1.71037274,-1.34509847,1.46515796e-04,5.91684223,-3.41751233,-1,-0.997794771231614
2.95293319e+03,5.19999882,-2.52075319e-10,2.80378637,3.60958374,1.70540286,-1.34509847,1.46441477e-04,5.92167372,-3.40292321,-1,-0.9976705391169546
3.08526839e+03,5.19999879,-2.44992018e-10,2.79645815,3.61027521,1.70035580,-1.34509847,1.46424824e-04,5.92658271,-3.38810502,-1,-0.9975407924718236
3.22345541e+03,5.19999876,-2.37992948e-10,2.78896645,3.61096162,1.69523714,-1.34509847,1.46356799e-04,5.93148688,-3.37323080,-1,-0.9974053084717566
3.36778958e+03,5.19999872,-2.31050544e-10,2.78164086,3.61173077,1.69003604,-1.34509847,1.46374700e-04,5.93657439,-3.35791167,-1,-0.9972637975635834
3.51856998e+03,5.19999869,-2.24427164e-10,2.77400383,3.61245662,1.68476583,-1.34509847,1.46418403e-04,5.94166393,-3.34252918,-1,-0.9971159665174859
3.67602885e+03,5.19999865,-2.17790779e-10,2.76626314,3.61319391,1.67942091,-1.34509847,1.46374287e-04,5.94686943,-3.32683933,-1,-0.9969615876362161
3.84045899e+03,5.19999862,-2.11251959e-10,2.75842310,3.61394183,1.67400505,-1.34509847,1.46306527e-04,5.95214573,-3.31094005,-1,-0.9968003738471152
4.01216283e+03,5.19999858,-2.04783649e-10,2.75053323,3.61471244,1.66851888,-1.34509847,1.46214115e-04,5.95749469,-3.29482679,-1,-0.9966320286358931
4.19137971e+03,5.19999855,-1.98483813e-10,2.74240509,3.61545628,1.66296714,-1.34509847,1.46082933e-04,5.96290916,-3.27851902,-1,-0.9964563173441818
4.37841616e+03,5.19999851,-1.92215999e-10,2.73406966,3.61617945,1.65735308,-1.34509847,1.45823081e-04,5.96838736,-3.26202369,-1,-0.9962729394378899
4.57379741e+03,5.19999848,-1.86127258e-10,2.72581400,3.61695591,1.65167233,-1.34509847,1.45658491e-04,5.97393105,-3.24533260,-1,-0.996081379960827
4.77809038e+03,5.19999844,-1.80280013e-10,2.71768945,3.61780048,1.64592091,-1.34509847,1.45662965e-04,5.97954484,-3.22843307,-1,-0.9958810830822841
4.99119976e+03,5.19999840,-1.74432850e-10,2.70921616,3.61858656,1.64011211,-1.34509847,1.45448701e-04,5.98521736,-3.21135887,-1,-0.995672142247941
5.21353670e+03,5.19999836,-1.68729402e-10,2.70061715,3.61937054,1.63424464,-1.34509847,1.45218422e-04,5.99094954,-3.19410589,-1,-0.9954541543501352
5.44596180e+03,5.19999832,-1.63119526e-10,2.69186217,3.62014463,1.62831898,-1.34509847,1.44911409e-04,5.99674090,-3.17667789,-1,-0.9952262756227123
5.68859854e+03,5.19999829,-1.57664514e-10,2.68315878,3.62096093,1.62233468,-1.34509847,1.44663490e-04,6.00259134,-3.15907566,-1,-0.9949883850010143
5.94168292e+03,5.19999825,-1.52367449e-10,2.67427315,3.62175858,1.61629657,-1.34509847,1.44391876e-04,6.00849674,-3.14131321,-1,-0.9947402511013407
6.20637489e+03,5.19999821,-1.47166342e-10,2.66537697,3.62258181,1.61020201,-1.34509847,1.44094326e-04,6.01445802,-3.12338614,-1,-0.9944807366630005
6.48238825e+03,5.19999817,-1.42163918e-10,2.65641860,3.62341567,1.60405511,-1.34509847,1.43861399e-04,6.02047211,-3.10530163,-1,-0.9942101222877523
6.77083467e+03,5.19999813,-1.37252777e-10,2.64733775,3.62424447,1.59785709,-1.34509847,1.43557778e-04,6.02653747,-3.08706346,-1,-0.9939273180505194
7.07183593e+03,5.19999809,-1.32477291e-10,2.63826237,3.62509946,1.59160942,-1.34509847,1.43277911e-04,6.03265300,-3.06867639,-1,-0.9936322045533907
7.38615670e+03,5.19999805,-1.27803779e-10,2.62892865,3.62591199,1.58531751,-1.34509847,1.42886983e-04,6.03881393,-3.05015331,-1,-0.9933240320837643
7.71432801e+03,5.19999801,-1.23280805e-10,2.61978113,3.62679625,1.57897522,-1.34509847,1.42599621e-04,6.04502582,-3.03148181,-1,-0.9930022799989012
8.05708600e+03,5.19999796,-1.18927318e-10,2.61042046,3.62764950,1.57258838,-1.34509847,1.42297937e-04,6.05128361,-3.01267568,-1,-0.992666226558136
8.41464085e+03,5.19999792,-1.14670688e-10,2.60102409,3.62851547,1.56615826,-1.34509847,1.41963106e-04,6.05758530,-2.99374317,-1,-0.9923156656927136
8.78833007e+03,5.19999788,-1.10522959e-10,2.59146230,3.62936066,1.55968699,-1.34509847,1.41556383e-04,6.06392883,-2.97469044,-1,-0.9919492860551218
9.17815563e+03,5.19999784,-1.06479392e-10,2.58197820,3.63024558,1.55317508,-1.34509847,1.41157980e-04,6.07031334,-2.95551444,-1,-0.9915670857138948
9.58533776e+03,5.19999780,-1.02610576e-10,2.57224730,3.63108729,1.54662622,-1.34509847,1.40752107e-04,6.07673723,-2.93622592,-1,-0.9911678683074541
1.00105866e+04,5.19999775,-9.88637702e-11,2.56273593,3.63200522,1.54003468,-1.34509847,1.40427445e-04,6.08320514,-2.91680649,-1,-0.9907509375865583
1.04540292e+04,5.19999771,-9.51991043e-11,2.55293552,3.63286651,1.53341188,-1.34509847,1.39965915e-04,6.08970671,-2.89729430,-1,-0.990316168986381
1.09177074e+04,5.19999767,-9.16493583e-11,2.54316614,3.63375341,1.52675340,-1.34509847,1.39505073e-04,6.09624251,-2.87767215,-1,-0.9898615606065212
1.14014496e+04,5.19999763,-8.82266919e-11,2.53331812,3.63463623,1.52006374,-1.34510286,1.39040481e-04,6.10277221,-2.85791574,-1,-0.9893872806903816
1.19060380e+04,5.19999758,-8.49026274e-11,2.52328946,3.63548686,1.51334817,-1.34510886,1.38499328e-04,6.10928162,-2.83801948,-1,-0.9888925623382573
1.24338107e+04,5.19999754,-8.17294695e-11,2.51352407,3.63642070,1.50659779,-1.34511830,1.38091393e-04,6.11578403,-2.81795987,-1,-0.9883751131847686
1.29844207e+04,5.19999750,-7.86405788e-11,2.50356463,3.63731709,1.49982528,-1.34513014,1.37583428e-04,6.12227552,-2.79777199,-1,-0.98783527344239
1.35589329e+04,5.19999745,-7.56470418e-11,2.49349483,3.63819593,1.49303271,-1.34513982,1.37019790e-04,6.12875801,-2.77746712,-1,-0.9872719990411961
1.41588629e+04,5.19999741,-7.27338437e-11,2.48337016,3.63906965,1.48622293,-1.34514363,1.36384982e-04,6.13523324,-2.75705590,-1,-0.9866838040272204
1.47858145e+04,5.19999736,-6.99827973e-11,2.47341800,3.63999720,1.47939175,-1.34514210,1.35896038e-04,6.14171392,-2.73653579,-1,-0.9860691159717405
1.54398298e+04,5.19999732,-6.72986049e-11,2.46318353,3.64085803,1.47255286,-1.34513986,1.35260500e-04,6.14819314,-2.71595289,-1,-0.9854278935982572
1.61227045e+04,5.19999727,-6.47163732e-11,2.45307389,3.64175504,1.46570401,-1.34513554,1.34648868e-04,6.15467782,-2.69531230,-1,-0.9847583763317258
1.68358938e+04,5.19999723,-6.22201585e-11,2.44298406,3.64265860,1.45885197,-1.34512994,1.34000347e-04,6.16116703,-2.67464063,-1,-0.98405913743672
1.75807948e+04,5.19999718,-5.98390994e-11,2.43274135,3.64352128,1.45200527,-1.34512682,1.33337546e-04,6.16766926,-2.65395445,-1,-0.9833288071413431
1.83588862e+04,5.19999714,-5.75613244e-11,2.42275987,3.64444783,1.44516143,-1.34514992,1.32730168e-04,6.17418210,-2.63328963,-1,-0.9825659356698424
1.91707627e+04,5.19999709,-5.53447128e-11,2.41252353,3.64530045,1.43833801,-1.34517086,1.31979108e-04,6.18072639,-2.61265106,-1,-0.9817699399549022
2.00184004e+04,5.19999705,-5.32162067e-11,2.40228200,3.64613907,1.43154000,-1.34518168,1.31200281e-04,6.18724553,-2.59218106,-1,-0.9809388825502087
2.09053237e+04,5.19999700,-5.12112865e-11,2.39243229,3.64706434,1.42476462,-1.34518353,1.30555352e-04,6.19378320,-2.57179655,-1,-0.9800693079951125
2.18313718e+04,5.19999695,-4.92929668e-11,2.38255348,3.64796230,1.41802929,-1.34517856,1.29882152e-04,6.20031321,-2.55156848,-1,-0.9791613739442704
2.27981660e+04,5.19999691,-4.74301191e-11,2.37260162,3.64881512,1.41134772,-1.34517039,1.29091165e-04,6.20679192,-2.53152858,-1,-0.9782134908112705
2.38081059e+04,5.19999686,-4.56684302e-11,2.36276675,3.64966664,1.40472725,-1.34516229,1.28336509e-04,6.21317355,-2.51169935,-1,-0.9772233059337095
2.48640761e+04,5.19999681,-4.39792778e-11,2.35291973,3.65047654,1.39818393,-1.34515569,1.27516730e-04,6.21945010,-2.49194869,-1,-0.9761879911360717
2.59672058e+04,5.19999677,-4.23721948e-11,2.34332444,3.65130757,1.39172422,-1.34515215,1.26707986e-04,6.22551342,-2.47234967,-1,-0.9751064393061772
2.71194358e+04,5.19999672,-4.08670953e-11,2.33392057,3.65214032,1.38535679,-1.34515009,1.25971035e-04,6.23133768,-2.45275753,-1,-0.9739767476072237
2.83246529e+04,5.19999667,-3.94177511e-11,2.32451080,3.65291319,1.37910618,-1.34514902,1.25133525e-04,6.23684614,-2.43311867,-1,-0.9727951052673203
2.95833461e+04,5.19999662,-3.80615129e-11,2.31548722,3.65372443,1.37297190,-1.34515575,1.24378023e-04,6.24202463,-2.41337068,-1,-0.9715610328515966
3.09001243e+04,5.19999657,-3.67698499e-11,2.30661689,3.65450252,1.36698055,-1.34515897,1.23579392e-04,6.24678384,-2.39361671,-1,-0.9702700116128655
3.22750927e+04,5.19999652,-3.55602026e-11,2.29787903,3.65523687,1.36114293,-1.34515972,1.22810835e-04,6.25120977,-2.37383136,-1,-0.9689219384089015
3.37143044e+04,5.19999647,-3.44222552e-11,2.28945274,3.65596284,1.35547784,-1.34516059,1.22050729e-04,6.25534665,-2.35406752,-1,-0.9675108785419245
3.52172416e+04,5.19999642,-3.33451495e-11,2.28124376,3.65665682,1.34998539,-1.34516302,1.21275751e-04,6.25923621,-2.33445257,-1,-0.9660373396834601
3.67905148e+04,5.19999637,-3.23535525e-11,2.27345708,3.65736968,1.34466634,-1.34520428,1.20592265e-04,6.26292841,-2.31508785,-1,-0.9644948406388022
3.84354350e+04,5.19999632,-3.14096130e-11,2.26575652,3.65802195,1.33951151,-1.34521912,1.19875493e-04,6.26648205,-2.29602545,-1,-0.9628820960518871
4.01544270e+04,5.19999627,-3.05184176e-11,2.25825684,3.65865666,1.33449225,-1.34522414,1.19182511e-04,6.26997054,-2.27721732,-1,-0.9611967285532388
4.19511930e+04,5.19999621,-2.96758952e-11,2.25106530,3.65932430,1.32956119,-1.34522767,1.18542411e-04,6.27349028,-2.25853098,-1,-0.9594351083600811
4.38277981e+04,5.19999616,-2.88574868e-11,2.24375133,3.65994551,1.32466179,-1.34522964,1.17875116e-04,6.27714833,-2.23977388,-1,-0.9575952107669929
4.57877253e+04,5.19999610,-2.80544280e-11,2.23651266,3.66060918,1.31971512,-1.34523023,1.17206857e-04,6.28107930,-2.22065857,-1,-0.9556736209035166
4.78348286e+04,5.19999605,-2.72648068e-11,2.22898393,3.66125934,1.31465043,-1.34522849,1.16553506e-04,6.28540615,-2.20090057,-1,-0.953666560156174
4.99711335e+04,5.19999599,-2.64645953e-11,2.22138720,3.66198663,1.30939749,-1.34528952,1.15844948e-04,6.29026273,-2.18012665,-1,-0.9515720426449447
5.21975124e+04,5.19999593,-2.56560250e-11,2.21338530,3.66272788,1.30391403,-1.34534032,1.15110361e-04,6.29566602,-2.15826966,-1,-0.9493892130344889
5.45173745e+04,5.19999588,-2.48451741e-11,2.20519775,3.66354474,1.29818655,-1.34534563,1.14392423e-04,6.30154843,-2.13537988,-1,-0.9471147288107774
5.69387368e+04,5.19999582,-2.40174352e-11,2.19649717,3.66435118,1.29222338,-1.34533337,1.13583725e-04,6.30787222,-2.11151083,-1,-0.9447407297910773
5.94619147e+04,5.19999576,-2.32019830e-11,2.18777373,3.66525335,1.28605731,-1.34532354,1.12810545e-04,6.31458146,-2.08672126,-1,-0.9422669067447991
6.20921487e+04,5.19999570,-2.23876069e-11,2.17877193,3.66616995,1.27972322,-1.34530720,1.11985752e-04,6.32159583,-2.06113133,-1,-0.9396881216792258
6.48370461e+04,5.19999564,-2.15940685e-11,2.16951928,3.66709219,1.27325242,-1.34530125,1.11181007e-04,6.32885230,-2.03485013,-1,-0.9369969160976498
6.77003321e+04,5.19999558,-2.08156180e-11,2.16025149,3.66806300,1.26667690,-1.34529562,1.10359041e-04,6.33629718,-2.00798964,-1,-0.9341896376671888
7.06870578e+04,5.19999552,-2.00547990e-11,2.15084560,3.66903702,1.26002592,-1.34529329,1.09515415e-04,6.34389397,-1.98064144,-1,-0.9312613340903497
7.38037541e+04,5.19999546,-1.93215549e-11,2.14145152,3.67004205,1.25331881,-1.34534033,1.08687399e-04,6.35162093,-1.95286938,-1,-0.9282056022154034
7.70553961e+04,5.19999539,-1.86139005e-11,2.13191884,3.67102933,1.24657791,-1.34540647,1.07864883e-04,6.35945887,-1.92473464,-1,-0.9250175642582518
8.04500592e+04,5.19999533,-1.79321881e-11,2.12254598,3.67206730,1.23981554,-1.34540923,1.07069285e-04,6.36740068,-1.89625353,-1,-0.9216893027785003
8.39946982e+04,5.19999527,-1.72759057e-11,2.11317233,3.67310699,1.23304934,-1.34539934,1.06281749e-04,6.37543488,-1.86746081,-1,-0.918213999016155
8.76954485e+04,5.19999521,-1.66484054e-11,2.10397184,3.67418637,1.22629033,-1.34539446,1.05523225e-04,6.38355884,-1.83837326,-1,-0.9145856375832726
9.15575118e+04,5.19999515,-1.60436100e-11,2.09468554,3.67523234,1.21955524,-1.34539739,1.04756168e-04,6.39176778,-1.80901992,-1,-0.9107991185281853
9.55902146e+04,5.19999508,-1.54703957e-11,2.08567721,3.67633347,1.21284882,-1.34550762,1.04021764e-04,6.40006916,-1.77939587,-1,-0.9068452977827551
9.98001387e+04,5.19999502,-1.49230286e-11,2.07680090,3.67744611,1.20618539,-1.34548490,1.03337593e-04,6.40845837,-1.74952045,-1,-0.9027177222908875
1.04198297e+05,5.19999495,-1.44000359e-11,2.06796184,3.67853962,1.19957884,-1.34551270,1.02654089e-04,6.41693304,-1.71938838,-1,-0.8984055945714271
1.08791358e+05,5.19999489,-1.39023925e-11,2.05936490,3.67965913,1.19304135,-1.34551971,1.01997471e-04,6.42548870,-1.68899320,-1,-0.8939023765641826
1.13587529e+05,5.19999483,-1.34311648e-11,2.05105339,3.68081048,1.18658289,-1.34558297,1.01362944e-04,6.43412465,-1.65833257,-1,-0.8892000215088013
1.18595233e+05,5.19999476,-1.29907177e-11,2.04291619,3.68196030,1.18021464,-1.34567990,1.00796851e-04,6.44284655,-1.62739453,-1,-0.8842902711641507
1.23829622e+05,5.19999469,-1.25705374e-11,2.03520428,3.68316242,1.17395445,-1.34567526,1.00244663e-04,6.45166121,-1.59616291,-1,-0.8791582699123226
1.29296390e+05,5.19999463,-1.21798121e-11,2.02763644,3.68433963,1.16781612,-1.34566594,9.97684904e-05,6.46056570,-1.56464197,-1,-0.8737984351313283
1.35006229e+05,5.19999456,-1.18127251e-11,2.02049243,3.68555292,1.16181753,-1.34565687,9.93207376e-05,6.46956325,-1.53281068,-1,-0.8682002839630185
1.40969910e+05,5.19999449,-1.14724554e-11,2.01382005,3.68680620,1.15597477,-1.34579957,9.88997363e-05,6.47865776,-1.50064303,-1,-0.8623532560945312
1.47204718e+05,5.19999442,-1.11556704e-11,2.00753851,3.68806281,1.15032078,-1.34579693,9.85380904e-05,6.48784608,-1.46811699,-1,-0.8562404046307006
1.53717646e+05,5.19999435,-1.08675326e-11,2.00188970,3.68937513,1.14487174,-1.34566486,9.82795778e-05,6.49713233,-1.43520406,-1,-0.8498548733587477
1.60520377e+05,5.19999427,-1.06075858e-11,1.99678781,3.69070847,1.13965412,-1.34557394,9.80894298e-05,6.50652514,-1.40186873,-1,-0.8431852078050698
1.67625228e+05,5.19999420,-1.03750883e-11,1.99243281,3.69209635,1.13470085,-1.34597212,9.78602625e-05,6.51602635,-1.36807616,-1,-0.8362193318974801
1.75048929e+05,5.19999412,-1.01738102e-11,1.98898155,3.69355801,1.13005192,-1.34597043,9.78071170e-05,6.52564348,-1.33379181,-1,-0.8289408428846845
1.82802496e+05,5.19999405,-1.00035458e-11,1.98633028,3.69504752,1.12574726,-1.34589710,9.78609881e-05,6.53538342,-1.29896124,-1,-0.8213389402461657
1.90895075e+05,5.19999397,-9.86716532e-12,1.98472205,3.69659974,1.12183870,-1.34599965,9.79806275e-05,6.54526168,-1.26354783,-1,-0.8134046568830993
