star_age,star_mass,star_mdot,log_L,log_Teff,log_R,log_surf_z,v_wind_Km_per_s,log_center_T,log_center_Rho,phase
5.44015168e+02,5.79999961,-6.19438611e-10,3.06901546,3.58961493,1.87795502,-1.34509847,1.25427427e-04,5.79705777,-3.86214032,-1
5.68035814e+02,5.79999960,-6.12328873e-10,3.07115911,3.59126036,1.87573598,-1.34509847,1.41236530e-04,5.79905417,-3.85612691,-1
5.93086193e+02,5.79999958,-6.10293030e-10,3.06946933,3.59192264,1.87356654,-1.34509847,1.46967676e-04,5.80111606,-3.84991324,-1
6.19269122e+02,5.79999957,-6.05070794e-10,3.06637880,3.59224853,1.87136949,-1.34509847,1.47780643e-04,5.80324672,-3.84349183,-1
6.46643939e+02,5.79999955,-5.97717467e-10,3.06320751,3.59258962,1.86910167,-1.34509847,1.48142366e-04,5.80544587,-3.83686261,-1
6.75212530e+02,5.79999953,-5.90459443e-10,3.05986741,3.59292240,1.86676606,-1.34509847,1.48519035e-04,5.80771107,-3.83003246,-1
7.05027564e+02,5.79999952,-5.82780456e-10,3.05639508,3.59325682,1.86436105,-1.34509847,1.48807066e-04,5.81004372,-3.82299858,-1
7.36147098e+02,5.79999950,-5.74823978e-10,3.05281119,3.59359890,1.86188495,-1.34509847,1.49054413e-04,5.81244535,-3.81575526,-1
7.68630215e+02,5.79999948,-5.66677310e-10,3.04909683,3.59394443,1.85933671,-1.34509847,1.49270166e-04,5.81491701,-3.80829934,-1
8.02540409e+02,5.79999946,-5.58347248e-10,3.04537771,3.59432609,1.85671382,-1.34509847,1.49535783e-04,5.81746045,-3.80062538,-1
8.37935477e+02,5.79999944,-5.50041069e-10,3.04156755,3.59472254,1.85401584,-1.34509847,1.49851105e-04,5.82007661,-3.79273038,-1
8.74871182e+02,5.79999942,-5.41626208e-10,3.03758141,3.59511235,1.85124315,-1.34509847,1.50123369e-04,5.82276576,-3.78461288,-1
9.13405566e+02,5.79999940,-5.33033190e-10,3.03344992,3.59550347,1.84839518,-1.34509847,1.50351448e-04,5.82552834,-3.77627424,-1
9.53597037e+02,5.79999938,-5.24296962e-10,3.02920492,3.59590404,1.84547153,-1.34509847,1.50562036e-04,5.82836459,-3.76771118,-1
9.95663133e+02,5.79999936,-5.15477974e-10,3.02486139,3.59632144,1.84246496,-1.34509847,1.50787428e-04,5.83128158,-3.75890483,-1
1.03960732e+03,5.79999934,-5.06634482e-10,3.02048802,3.59677197,1.83937722,-1.34509847,1.51081585e-04,5.83427710,-3.74985980,-1
1.08541092e+03,5.79999931,-4.97740204e-10,3.01593568,3.59721587,1.83621325,-1.34509847,1.51335906e-04,5.83734748,-3.74058773,-1
1.13313433e+03,5.79999929,-4.88798874e-10,3.01131033,3.59768015,1.83297202,-1.34509847,1.51616790e-04,5.84049295,-3.73108717,-1
1.18300605e+03,5.79999927,-4.79768876e-10,3.00648601,3.59813555,1.82964907,-1.34509847,1.51834593e-04,5.84371864,-3.72134673,-1
1.23514234e+03,5.79999924,-4.70625043e-10,3.00149573,3.59859095,1.82624312,-1.34509847,1.52000171e-04,5.84702571,-3.71135886,-1
1.28940926e+03,5.79999922,-4.61402163e-10,2.99655736,3.59909784,1.82276016,-1.34509847,1.52242309e-04,5.85040739,-3.70114773,-1
1.34614812e+03,5.79999919,-4.52376455e-10,2.99144756,3.59960435,1.81919223,-1.34509847,1.52525633e-04,5.85387203,-3.69068529,-1
1.40535459e+03,5.79999916,-4.43240595e-10,2.98620456,3.60011825,1.81554293,-1.34509847,1.52764755e-04,5.85741668,-3.67998355,-1
1.46704197e+03,5.79999914,-4.33993779e-10,2.98073959,3.60061499,1.81181696,-1.34509847,1.52895328e-04,5.86103664,-3.66905544,-1
1.53158084e+03,5.79999911,-4.24818370e-10,2.97538362,3.60118340,1.80800215,-1.34509847,1.53181112e-04,5.86474234,-3.65786729,-1
1.59877373e+03,5.79999908,-4.15672466e-10,2.96976513,3.60172405,1.80411161,-1.34509847,1.53379392e-04,5.86852288,-3.64645526,-1
1.66900757e+03,5.79999905,-4.06458508e-10,2.96396615,3.60226133,1.80013757,-1.34509847,1.53503816e-04,5.87238548,-3.63479375,-1
1.74225694e+03,5.79999902,-3.97280993e-10,2.95819227,3.60284536,1.79608257,-1.34509847,1.53702508e-04,5.87632638,-3.62289371,-1
1.81860090e+03,5.79999899,-3.88134999e-10,2.95218902,3.60341058,1.79195050,-1.34509847,1.53825102e-04,5.88034353,-3.61076099,-1
1.89844803e+03,5.79999896,-3.79051494e-10,2.94604201,3.60398196,1.78773423,-1.34509847,1.53932813e-04,5.88444350,-3.59837860,-1
1.98161979e+03,5.79999893,-3.69945401e-10,2.93979683,3.60456674,1.78344208,-1.34509847,1.54007244e-04,5.88861765,-3.58577163,-1
2.06835209e+03,5.79999890,-3.60906624e-10,2.93347961,3.60517258,1.77907180,-1.34509847,1.54095780e-04,5.89286815,-3.57293226,-1
2.15907397e+03,5.79999887,-3.52088051e-10,2.92722012,3.60583599,1.77461523,-1.34509847,1.54332603e-04,5.89720289,-3.55984106,-1
2.25361852e+03,5.79999884,-3.43235304e-10,2.92062659,3.60645278,1.77008489,-1.34509847,1.54394035e-04,5.90161117,-3.54652754,-1
2.35222124e+03,5.79999880,-3.34437087e-10,2.91399778,3.60709925,1.76547753,-1.34509847,1.54470732e-04,5.90609501,-3.53298539,-1
2.45503974e+03,5.79999877,-3.25732401e-10,2.90710993,3.60771765,1.76079681,-1.34509847,1.54460823e-04,5.91065236,-3.51922146,-1
2.56231887e+03,5.79999873,-3.17087572e-10,2.90024553,3.60838029,1.75603934,-1.34509847,1.54489270e-04,5.91528518,-3.50523056,-1
2.67436463e+03,5.79999870,-3.08577022e-10,2.89327436,3.60905458,1.75120516,-1.34509847,1.54519877e-04,5.91999499,-3.49101126,-1
2.79125190e+03,5.79999866,-3.00097473e-10,2.88624059,3.60974995,1.74629755,-1.34509847,1.54518630e-04,5.92477853,-3.47657467,-1
2.91315888e+03,5.79999863,-2.91877301e-10,2.87899883,3.61042899,1.74131859,-1.34509847,1.54530435e-04,5.92963437,-3.46192909,-1
3.04034360e+03,5.79999859,-2.83650886e-10,2.87175535,3.61114369,1.73626744,-1.34509847,1.54510972e-04,5.93456212,-3.44707233,-1
3.17298976e+03,5.79999856,-2.75638995e-10,2.86426051,3.61182922,1.73114897,-1.34509847,1.54456434e-04,5.93950088,-3.43212793,-1
3.31140015e+03,5.79999852,-2.67735686e-10,2.85689730,3.61258342,1.72595897,-1.34509847,1.54485154e-04,5.94452968,-3.41694335,-1
3.45570793e+03,5.79999848,-2.59881476e-10,2.84919838,3.61328660,1.72070313,-1.34509847,1.54345124e-04,5.94966156,-3.40148324,-1
3.60624310e+03,5.79999844,-2.52139043e-10,2.84137090,3.61398992,1.71538276,-1.34509847,1.54160694e-04,5.95485683,-3.38583170,-1
3.76348050e+03,5.79999840,-2.44707771e-10,2.83382850,3.61480154,1.70998833,-1.34509847,1.54238749e-04,5.96012807,-3.36995897,-1
3.92739415e+03,5.79999836,-2.37287691e-10,2.82584616,3.61553267,1.70453489,-1.34509847,1.54069631e-04,5.96545981,-3.35390537,-1
4.09835040e+03,5.79999832,-2.29974602e-10,2.81781494,3.61628248,1.69901967,-1.34509847,1.53879067e-04,5.97085255,-3.33767200,-1
4.27666576e+03,5.79999828,-2.22841913e-10,2.80985813,3.61708262,1.69344097,-1.34509847,1.53766105e-04,5.97630819,-3.32125046,-1
4.46254244e+03,5.79999824,-2.15921356e-10,2.80168813,3.61785887,1.68780347,-1.34509847,1.53634314e-04,5.98182317,-3.30465404,-1
4.65660204e+03,5.79999820,-2.09096172e-10,2.79342451,3.61864150,1.68210640,-1.34509847,1.53445880e-04,5.98739767,-3.28788011,-1
4.85901288e+03,5.79999816,-2.02396717e-10,2.78499874,3.61941147,1.67635359,-1.34509847,1.53192835e-04,5.99302883,-3.27093564,-1
5.07000186e+03,5.79999812,-1.95848810e-10,2.77650470,3.62019150,1.67054649,-1.34509847,1.52932558e-04,5.99871424,-3.25383081,-1
5.29007681e+03,5.79999808,-1.89461613e-10,2.76805093,3.62100972,1.66468319,-1.34509847,1.52714641e-04,6.00445647,-3.23655513,-1
5.51983393e+03,5.79999804,-1.83279265e-10,2.75942829,3.62181265,1.65876600,-1.34509847,1.52489901e-04,6.01025296,-3.21912366,-1
5.75922872e+03,5.79999799,-1.77143819e-10,2.75068928,3.62261074,1.65280032,-1.34509847,1.52151036e-04,6.01609897,-3.20154655,-1
6.00903162e+03,5.79999795,-1.71202343e-10,2.74198955,3.62344474,1.64678244,-1.34509847,1.51877191e-04,6.02199712,-3.18381614,-1
6.26964578e+03,5.79999791,-1.65464547e-10,2.73313505,3.62426424,1.64071620,-1.34509847,1.51607247e-04,6.02794431,-3.16593761,-1
6.54112828e+03,5.79999786,-1.59827375e-10,2.72417727,3.62508029,1.63460521,-1.34509847,1.51272817e-04,6.03393630,-3.14792529,-1
6.82478361e+03,5.79999782,-1.54328632e-10,2.71522479,3.62592171,1.62844613,-1.34509847,1.50936320e-04,6.03996914,-3.12976059,-1
7.12018704e+03,5.79999777,-1.49021763e-10,2.70620075,3.62676656,1.62224440,-1.34510073,1.50633268e-04,6.04600559,-3.11141921,-1
7.42855736e+03,5.79999773,-1.43820248e-10,2.69693788,3.62757148,1.61600314,-1.34510251,1.50208029e-04,6.05203741,-3.09289803,-1
7.74991965e+03,5.79999768,-1.38788917e-10,2.68781905,3.62843377,1.60971913,-1.34510337,1.49870081e-04,6.05807119,-3.07418749,-1
8.08544265e+03,5.79999764,-1.33927759e-10,2.67860747,3.62929329,1.60339431,-1.34510366,1.49533371e-04,6.06410667,-3.05528700,-1
8.43495647e+03,5.79999759,-1.29136688e-10,2.66942595,3.63017878,1.59703256,-1.34510363,1.49132081e-04,6.07014430,-3.03620768,-1
8.79981994e+03,5.79999755,-1.24572605e-10,2.65991635,3.63099856,1.59063820,-1.34510430,1.48716865e-04,6.07618077,-3.01696013,-1
9.18012183e+03,5.79999750,-1.20140324e-10,2.65066797,3.63190284,1.58420545,-1.34510758,1.48387179e-04,6.08222755,-2.99753049,-1
9.57691217e+03,5.79999745,-1.15805227e-10,2.64115608,3.63275544,1.57774431,-1.34510967,1.47918464e-04,6.08827703,-2.97793862,-1
9.99061064e+03,5.79999741,-1.11612185e-10,2.63163334,3.63361976,1.57125430,-1.34511042,1.47453511e-04,6.09433233,-2.95818491,-1
1.04219154e+04,5.79999736,-1.07555502e-10,2.62208350,3.63449070,1.56473750,-1.34511026,1.46981274e-04,6.10039275,-2.93827279,-1
1.08721427e+04,5.79999731,-1.03631215e-10,2.61249857,3.63536563,1.55819518,-1.34510977,1.46490448e-04,6.10645791,-2.91820039,-1
1.13413830e+04,5.79999727,-9.98424659e-11,2.60293715,3.63625828,1.55162916,-1.34510883,1.46012919e-04,6.11252794,-2.89797435,-1
1.18308827e+04,5.79999722,-9.61970411e-11,2.59333657,3.63715212,1.54504119,-1.34511264,1.45539025e-04,6.11860220,-2.87759518,-1
1.23415864e+04,5.79999717,-9.26476794e-11,2.58368984,3.63804311,1.53843585,-1.34512561,1.44995605e-04,6.12467912,-2.85707156,-1
1.28737282e+04,5.79999712,-8.92206046e-11,2.57388633,3.63890097,1.53181837,-1.34513831,1.44400158e-04,6.13075898,-2.83642379,-1
1.34289375e+04,5.79999707,-8.59183522e-11,2.56412660,3.63977637,1.52518772,-1.34515026,1.43811533e-04,6.13684800,-2.81564511,-1
1.40083383e+04,5.79999703,-8.27328662e-11,2.55439428,3.64066359,1.51854711,-1.34516315,1.43212804e-04,6.14295109,-2.79475149,-1
1.46122583e+04,5.79999698,-7.96610149e-11,2.54458914,3.64153512,1.51190149,-1.34517485,1.42581053e-04,6.14906838,-2.77376538,-1
1.52421028e+04,5.79999693,-7.67072297e-11,2.53486457,3.64242917,1.50525110,-1.34518588,1.41964619e-04,6.15520319,-2.75269769,-1
1.58997509e+04,5.79999688,-7.38643331e-11,2.52515775,3.64332771,1.49860061,-1.34520031,1.41330481e-04,6.16135661,-2.73156925,-1
1.65852955e+04,5.79999683,-7.11180570e-11,2.51537151,3.64420307,1.49195677,-1.34522376,1.40638039e-04,6.16753910,-2.71038514,-1
1.73001407e+04,5.79999678,-6.84958956e-11,2.50563614,3.64508673,1.48532177,-1.34524339,1.39977884e-04,6.17374739,-2.68917313,-1
1.80464099e+04,5.79999673,-6.59699863e-11,2.49597141,3.64598104,1.47870079,-1.34525840,1.39294914e-04,6.17995969,-2.66801389,-1
1.88248320e+04,5.79999668,-6.35257521e-11,2.48617194,3.64682869,1.47210575,-1.34527627,1.38519299e-04,6.18618749,-2.64692707,-1
1.96369896e+04,5.79999663,-6.11888424e-11,2.47663242,3.64772962,1.46553412,-1.34528761,1.37789131e-04,6.19243990,-2.62590352,-1
2.04840940e+04,5.79999658,-5.89615243e-11,2.46705746,3.64860471,1.45899646,-1.34529989,1.37057651e-04,6.19869978,-2.60500918,-1
2.13688108e+04,5.79999653,-5.68341942e-11,2.45750871,3.64946556,1.45250039,-1.34530954,1.36315286e-04,6.20495948,-2.58425446,-1
2.22914104e+04,5.79999648,-5.47802608e-11,2.44795095,3.65029894,1.44605474,-1.34532462,1.35503076e-04,6.21118435,-2.56366050,-1
2.32537181e+04,5.79999643,-5.28047961e-11,2.43854033,3.65114177,1.43966378,-1.34537613,1.34651009e-04,6.21743036,-2.54302917,-1
2.42592823e+04,5.79999637,-5.09453084e-11,2.42914236,3.65195449,1.43333936,-1.34539989,1.33849403e-04,6.22348781,-2.52270056,-1
2.53081683e+04,5.79999632,-4.91564893e-11,2.41995227,3.65278684,1.42707961,-1.34540762,1.33026599e-04,6.22940980,-2.50241826,-1
2.64032511e+04,5.79999627,-4.74760445e-11,2.41103753,3.65365584,1.42088423,-1.34542408,1.32291439e-04,6.23515953,-2.48209105,-1
2.75461267e+04,5.79999622,-4.58454012e-11,2.40198863,3.65445338,1.41476471,-1.34544255,1.31446477e-04,6.24069722,-2.46163777,-1
2.87377989e+04,5.79999616,-4.42841187e-11,2.39311204,3.65526029,1.40871258,-1.34543525,1.30605717e-04,6.24602678,-2.44095311,-1
2.99829943e+04,5.79999611,-4.28063623e-11,2.38433136,3.65605696,1.40272890,-1.34546004,1.29791466e-04,6.25111106,-2.42001558,-1
3.12804505e+04,5.79999605,-4.13900134e-11,2.37565624,3.65685038,1.39680451,-1.34548237,1.28977056e-04,6.25601120,-2.39879573,-1
3.26363875e+04,5.79999600,-4.00347483e-11,2.36712688,3.65765150,1.39093759,-1.34548527,1.28167576e-04,6.26092044,-2.37701822,-1
3.40487531e+04,5.79999594,-3.87296880e-11,2.35866144,3.65844340,1.38512108,-1.34549522,1.27341926e-04,6.26582566,-2.35486573,-1
3.55246090e+04,5.79999589,-3.74905764e-11,2.35024781,3.65922308,1.37935491,-1.34550313,1.26552681e-04,6.27079073,-2.33231205,-1
3.70624148e+04,5.79999583,-3.63042134e-11,2.34208625,3.66004594,1.37362840,-1.34551160,1.25792485e-04,6.27586084,-2.30939881,-1
3.86690001e+04,5.79999578,-3.51541422e-11,2.33390455,3.66084069,1.36794805,-1.34551191,1.24986486e-04,6.28107113,-2.28612579,-1
4.03426478e+04,5.79999572,-3.40594730e-11,2.32582831,3.66164216,1.36230700,-1.34548735,1.24234107e-04,6.28642740,-2.26253595,-1
4.20916867e+04,5.79999566,-3.30084787e-11,2.31788993,3.66245741,1.35670729,-1.34541640,1.23496742e-04,6.29194656,-2.23861224,-1
4.39137923e+04,5.79999560,-3.19916227e-11,2.31004077,3.66327492,1.35114769,-1.34536333,1.22738427e-04,6.29761634,-2.21438352,-1
4.58176022e+04,5.79999554,-3.10311891e-11,2.30239950,3.66412540,1.34562610,-1.34534011,1.22044118e-04,6.30348262,-2.18973928,-1
4.78012478e+04,5.79999548,-3.01019171e-11,2.29471251,3.66494444,1.34014453,-1.34532960,1.21328251e-04,6.30953248,-2.16469946,-1
4.98725914e+04,5.79999542,-2.92149076e-11,2.28720792,3.66578975,1.33470160,-1.34531506,1.20647284e-04,6.31567839,-2.13946795,-1
5.20332966e+04,5.79999536,-2.83548670e-11,2.27983717,3.66664769,1.32930036,-1.34530578,1.19942757e-04,6.32197474,-2.11397042,-1
5.42871756e+04,5.79999530,-2.75539146e-11,2.27277939,3.66756832,1.32393020,-1.34532448,1.19359470e-04,6.32844268,-2.08815278,-1
5.66402677e+04,5.79999523,-2.67668349e-11,2.26564236,3.66844699,1.31860436,-1.34532291,1.18710088e-04,6.33508081,-2.06201707,-1
5.90931172e+04,5.79999517,-2.60137279e-11,2.25860838,3.66933010,1.31332114,-1.34531381,1.18090494e-04,6.34188727,-2.03556191,-1
6.16534496e+04,5.79999510,-2.52951739e-11,2.25177265,3.67024020,1.30808308,-1.34531081,1.17503322e-04,6.34887172,-2.00876777,-1
6.43254389e+04,5.79999504,-2.46068055e-11,2.24512674,3.67117301,1.30289449,-1.34530189,1.16937172e-04,6.35603352,-1.98163159,-1
6.71120031e+04,5.79999497,-2.39552017e-11,2.23882577,3.67216786,1.29775431,-1.34539715,1.16404098e-04,6.36337566,-1.95414252,-1
7.00190576e+04,5.79999490,-2.33334762e-11,2.23248925,3.67312355,1.29267469,-1.34548779,1.15901918e-04,6.37089704,-1.92630010,-1
7.30542450e+04,5.79999483,-2.27394801e-11,2.22650569,3.67413276,1.28766448,-1.34550969,1.15432983e-04,6.37860255,-1.89808148,-1
7.62199223e+04,5.79999476,-2.21826253e-11,2.22080241,3.67517493,1.28272850,-1.34551855,1.15039819e-04,6.38649106,-1.86947832,-1
7.95218154e+04,5.79999469,-2.16484767e-11,2.21523940,3.67620546,1.27788593,-1.34550551,1.14651615e-04,6.39456171,-1.84048709,-1
8.29668067e+04,5.79999461,-2.11531792e-11,2.21009968,3.67728992,1.27314715,-1.34548739,1.14345939e-04,6.40281980,-1.81109253,-1
8.65639812e+04,5.79999454,-2.06874305e-11,2.20524397,3.67838077,1.26853759,-1.34548087,1.14065718e-04,6.41127315,-1.78127678,-1
9.03165770e+04,5.79999446,-2.02588872e-11,2.20088482,3.67952314,1.26407329,-1.34547000,1.13855493e-04,6.41991569,-1.75103906,-1
9.42314230e+04,5.79999438,-1.98681930e-11,2.19697691,3.68069441,1.25977678,-1.34554453,1.13695673e-04,6.42875297,-1.72035199,-1
9.83153066e+04,5.79999430,-1.95210495e-11,2.19367332,3.68192050,1.25567280,-1.34577047,1.13596562e-04,6.43778776,-1.68919769,-1
1.02575138e+05,5.79999422,-1.92118659e-11,2.19101641,3.68319415,1.25179707,-1.34578374,1.13605379e-04,6.44702100,-1.65756337,-1
1.07018152e+05,5.79999414,-1.89527996e-11,2.18904844,3.68450887,1.24818363,-1.34577622,1.13739615e-04,6.45646222,-1.62541855,-1
1.11650669e+05,5.79999405,-1.87441271e-11,2.18800884,3.68590352,1.24487453,-1.34572762,1.13987105e-04,6.46612203,-1.59274087,-1
1.16482668e+05,5.79999396,-1.85886082e-11,2.18775775,3.68731162,1.24193278,-1.34573766,1.14326133e-04,6.47600778,-1.55949715,-1
1.21514108e+05,5.79999387,-1.85002794e-11,2.18878184,3.68883280,1.23940248,-1.34571745,1.14831767e-04,6.48611586,-1.52567132,-1
1.26750243e+05,5.79999377,-1.84831794e-11,2.19107671,3.69043521,1.23734509,-1.34570639,1.15494513e-04,6.49645347,-1.49123082,-1
1.32192002e+05,5.79999367,-1.85493598e-11,2.19482985,3.69214209,1.23580789,-1.34567674,1.16367343e-04,6.50701892,-1.45614960,-1
1.37839195e+05,5.79999356,-1.87100193e-11,2.20019882,3.69398403,1.23480850,-1.34561052,1.17501729e-04,6.51781403,-1.42039996,-1
1.43686771e+05,5.79999345,-1.89738817e-11,2.20728513,3.69601167,1.23429639,-1.34564116,1.18918079e-04,6.52883612,-1.38397967,-1
1.49738969e+05,5.79999334,-1.93235467e-11,2.21568166,3.69817064,1.23417670,-1.34561416,1.20593850e-04,6.54009652,-1.34682856,-1
1.55994513e+05,5.79999322,-1.97523534e-11,2.22525824,3.70054135,1.23422358,-1.34559241,1.22556234e-04,6.55159123,-1.30892683,-1
1.62478952e+05,5.79999309,-2.02149380e-11,2.23521529,3.70306961,1.23414558,-1.34557437,1.24697224e-04,6.56336207,-1.27010644,-1
1.69208471e+05,5.79999295,-2.06636975e-11,2.24491299,3.70579151,1.23355062,-1.34554694,1.26961728e-04,6.57542017,-1.23028907,-1
1.76198618e+05,5.79999280,-2.10375694e-11,2.25364311,3.70874903,1.23200064,-1.34552795,1.29253878e-04,6.58775419,-1.18941543,-1
1.83480987e+05,5.79999265,-2.12870013e-11,2.26081097,3.71185858,1.22936548,-1.34550368,1.31433366e-04,6.60037481,-1.14737259,-1
1.91047134e+05,5.79999249,-2.14127517e-11,2.26664701,3.71517213,1.22565639,-1.34546097,1.33540917e-04,6.61322120,-1.10427197,-1
1.98907840e+05,5.79999232,-2.14323215e-11,2.27127476,3.71862825,1.22105803,-1.34550024,1.35604234e-04,6.62626930,-1.06011281,-1
2.07044166e+05,5.79999214,-2.13831908e-11,2.27538564,3.72230936,1.21575125,-1.34550433,1.37805706e-04,6.63945964,-1.01503923,-1
2.15458785e+05,5.79999196,-2.12957591e-11,2.27935347,3.72619197,1.20996996,-1.34533019,1.40292701e-04,6.65279052,-9.69040566e-01,-1
2.24145689e+05,5.79999178,-2.12082823e-11,2.28368176,3.73029039,1.20393726,-1.34556042,1.43112228e-04,6.66625916,-9.22148743e-01,-1
2.33085655e+05,5.79999159,-2.11461179e-11,2.28876632,3.73467531,1.19770970,-1.34554784,1.46802873e-04,6.67969561,-8.74785760e-01,-1
2.42241648e+05,5.79999140,-2.11330937e-11,2.29499886,3.73937940,1.19141779,-1.34554201,1.51729332e-04,6.69345124,-8.26462148e-01,-1
2.51588021e+05,5.79999120,-2.11941577e-11,2.30270490,3.74441271,1.18520419,-1.34544129,1.58558221e-04,6.70731279,-7.77390937e-01,-1
2.61063000e+05,5.79999100,-2.13384608e-11,2.31207628,3.74984063,1.17903402,-1.34556602,1.68188938e-04,6.72132892,-7.27669792e-01,-1
2.70545991e+05,5.79999079,-2.15621969e-11,2.32314849,3.75584903,1.17255333,-1.34570610,1.82477495e-04,6.73529549,-6.78080064e-01,-1
2.79647311e+05,5.79999060,-2.17555751e-11,2.33534247,3.76310950,1.16412939,-1.34562709,2.04967446e-04,6.74843171,-6.31190335e-01,-1
2.88513150e+05,5.79999040,-2.19650609e-11,2.34874174,3.77101982,1.15500839,-1.34544458,2.36751919e-04,6.76157748,-5.85073610e-01,-1
2.97147497e+05,5.79999021,-2.22119016e-11,2.36326811,3.77942875,1.14545370,-1.34513813,2.79948960e-04,6.77463354,-5.39435617e-01,-1
3.05562454e+05,5.79999002,-2.24952080e-11,2.37881422,3.78825282,1.13557862,-1.34514348,3.37489885e-04,6.78731307,-4.94995004e-01,-1
3.13843222e+05,5.79998984,-2.28383310e-11,2.39543880,3.79731142,1.12577372,-1.34517196,4.13376039e-04,6.79995034,-4.51073269e-01,-1
3.22008135e+05,5.79998965,-2.32532358e-11,2.41310606,3.80653886,1.11615246,-1.34532525,5.03327336e-04,6.81262198,-4.07393149e-01,-1
