star_age,star_mass,star_mdot,log_L,log_Teff,log_R,log_surf_z,v_wind_Km_per_s,log_center_T,log_center_Rho,phase,x
1.55536399e+02,7.99974764e+01,-9.93599356e-06,5.83936777,4.14500314,2.15235476,-1.34509850,7.93477037e+01,6.73989248,-2.34591424,-1,-1.0
1.59570907e+02,7.99974387e+01,-9.83593893e-06,5.83752489,4.14579230,2.14985499,-1.34509850,7.90792238e+01,6.74125842,-2.34175598,-1,-0.9996659216874735
1.63605415e+02,7.99974009e+01,-9.73588430e-06,5.83568200,4.14658147,2.14735521,-1.34509850,7.88107439e+01,6.74262437,-2.33759773,-1,-0.999331843374947
1.67639923e+02,7.99973632e+01,-9.63582967e-06,5.83383912,4.14737064,2.14485543,-1.34509850,7.85422640e+01,6.74399032,-2.33343947,-1,-0.9989977650624203
1.71674430e+02,7.99973254e+01,-9.53577505e-06,5.83199623,4.14815981,2.14235566,-1.34509850,7.82737841e+01,6.74535626,-2.32928121,-1,-0.998663686832699
1.75708938e+02,7.99972877e+01,-9.43572042e-06,5.83015335,4.14894897,2.13985588,-1.34509850,7.80053042e+01,6.74672221,-2.32512295,-1,-0.9983296085201725
1.79864870e+02,7.99972492e+01,-9.34254516e-06,5.82836110,4.14976279,2.13733211,-1.34509850,7.77884857e+01,6.74812023,-2.32086544,-1,-0.9979854756669138
1.84512234e+02,7.99972075e+01,-9.27721221e-06,5.82677379,4.15067640,2.13471125,-1.34509851,7.77807521e+01,6.74964806,-2.31620622,-1,-0.9976006496799987
1.89159598e+02,7.99971659e+01,-9.21187926e-06,5.82518648,4.15159000,2.13209039,-1.34509851,7.77730185e+01,6.75117590,-2.31154700,-1,-0.9972158236930837
1.93806962e+02,7.99971242e+01,-9.14654632e-06,5.82359917,4.15250361,2.12946953,-1.34509851,7.77652849e+01,6.75270373,-2.30688778,-1,-0.9968309977061687
1.98454325e+02,7.99970826e+01,-9.08121337e-06,5.82201186,4.15341721,2.12684867,-1.34509851,7.77575514e+01,6.75423156,-2.30222856,-1,-0.9964461718020589
2.03101689e+02,7.99970409e+01,-9.01588042e-06,5.82042455,4.15433081,2.12422780,-1.34509851,7.77498178e+01,6.75575939,-2.29756933,-1,-0.9960613458151438
2.07862899e+02,7.99969985e+01,-8.95297906e-06,5.81887839,4.15525269,2.12161096,-1.34509851,7.77575439e+01,6.75731652,-2.29281950,-1,-0.995667092785435
2.13249486e+02,7.99969519e+01,-8.90343493e-06,5.81755828,4.15622005,2.11901619,-1.34509851,7.78501937e+01,6.75903459,-2.28757194,-1,-0.9952210552772092
2.18636074e+02,7.99969053e+01,-8.85389079e-06,5.81623816,4.15718741,2.11642142,-1.34509851,7.79428435e+01,6.76075266,-2.28232437,-1,-0.994775017686178
2.24022662e+02,7.99968588e+01,-8.80434665e-06,5.81491804,4.15815476,2.11382664,-1.34509851,7.80354933e+01,6.76247073,-2.27707680,-1,-0.9943289800951469
2.29409250e+02,7.99968122e+01,-8.75480252e-06,5.81359792,4.15912212,2.11123187,-1.34509851,7.81281431e+01,6.76418879,-2.27182924,-1,-0.9938829425041158
2.34795838e+02,7.99967656e+01,-8.70525838e-06,5.81227781,4.16008948,2.10863710,-1.34509851,7.82207928e+01,6.76590686,-2.26658167,-1,-0.9934369049130847
2.40182426e+02,7.99967190e+01,-8.65571424e-06,5.81095769,4.16105683,2.10604233,-1.34509852,7.83134426e+01,6.76762493,-2.26133411,-1,-0.9929908673220537
2.46254787e+02,7.99966677e+01,-8.60797066e-06,5.80986282,4.16206729,2.10347399,-1.34509852,7.83959047e+01,6.76952139,-2.25553750,-1,-0.992488044148588
2.52406393e+02,7.99966159e+01,-8.56043513e-06,5.80879397,4.16308272,2.10090871,-1.34509852,7.84771894e+01,6.77143847,-2.24967746,-1,-0.9919786590756602
2.58557999e+02,7.99965641e+01,-8.51289961e-06,5.80772513,4.16409815,2.09834343,-1.34509852,7.85584742e+01,6.77335555,-2.24381741,-1,-0.9914692740027323
2.64709606e+02,7.99965123e+01,-8.46536409e-06,5.80665629,4.16511358,2.09577815,-1.34509852,7.86397590e+01,6.77527263,-2.23795737,-1,-0.9909598888469993
2.70882834e+02,7.99964604e+01,-8.41850930e-06,5.80559766,4.16613179,2.09321241,-1.34509852,7.87268373e+01,6.77719506,-2.23208089,-1,-0.9904487133596581
2.77812415e+02,7.99964029e+01,-8.39546739e-06,5.80489633,4.16724732,2.09063068,-1.34509852,7.90165790e+01,6.77930441,-2.22562965,-1,-0.98987490789763
2.84741996e+02,7.99963454e+01,-8.37242547e-06,5.80419501,4.16836285,2.08804895,-1.34509852,7.93063207e+01,6.78141375,-2.21917840,-1,-0.989301102435602
2.91671577e+02,7.99962878e+01,-8.34938356e-06,5.80349368,4.16947838,2.08546723,-1.34509853,7.95960624e+01,6.78352310,-2.21272716,-1,-0.9887272969735739
2.98601157e+02,7.99962303e+01,-8.32634164e-06,5.80279236,4.17059391,2.08288550,-1.34509853,7.98858040e+01,6.78563245,-2.20627591,-1,-0.988153491594351
3.05530738e+02,7.99961728e+01,-8.30329973e-06,5.80209103,4.17170945,2.08030378,-1.34509853,8.01755457e+01,6.78774179,-2.19982467,-1,-0.9875796861323229
3.13244587e+02,7.99961090e+01,-8.29424575e-06,5.80175910,4.17289459,2.07776752,-1.34509853,8.05793392e+01,6.79004339,-2.19278606,-1,-0.9869409391879608
3.21106311e+02,7.99960441e+01,-8.28782921e-06,5.80149682,4.17409286,2.07523984,-1.34509853,8.10046373e+01,6.79238124,-2.18563669,-1,-0.9862899474220579
3.28968034e+02,7.99959791e+01,-8.28141268e-06,5.80123454,4.17529113,2.07271215,-1.34509853,8.14299354e+01,6.79471908,-2.17848733,-1,-0.9856389557389602
3.36829758e+02,7.99959141e+01,-8.27499614e-06,5.80097226,4.17648941,2.07018447,-1.34509853,8.18552336e+01,6.79705693,-2.17133796,-1,-0.9849879639730573
3.44691482e+02,7.99958491e+01,-8.26857961e-06,5.80070998,4.17768768,2.06765679,-1.34509854,8.22805317e+01,6.79939477,-2.16418860,-1,-0.9843369722071543
3.52887775e+02,7.99957812e+01,-8.27066272e-06,5.80058899,4.17892206,2.06512752,-1.34509854,8.27894198e+01,6.80181653,-2.15678403,-1,-0.983658276382431
3.61690437e+02,7.99957078e+01,-8.28815045e-06,5.80072409,4.18022191,2.06259538,-1.34509854,8.34498051e+01,6.80439035,-2.14891692,-1,-0.9829293700407652
3.70493099e+02,7.99956344e+01,-8.30563819e-06,5.80085919,4.18152175,2.06006324,-1.34509854,8.41101904e+01,6.80696417,-2.14104982,-1,-0.9822004636990993
3.79295762e+02,7.99955610e+01,-8.32312593e-06,5.80099429,4.18282160,2.05753110,-1.34509854,8.47705757e+01,6.80953799,-2.13318271,-1,-0.9814715572746283
3.88215483e+02,7.99954864e+01,-8.34346451e-06,5.80118378,4.18413641,2.05499623,-1.34509854,8.54607301e+01,6.81214063,-2.12522837,-1,-0.9807329578370048
3.97851521e+02,7.99954047e+01,-8.38124818e-06,5.80170616,4.18554278,2.05244467,-1.34509854,8.63330492e+01,6.81491969,-2.11674021,-1,-0.9799350436143829
4.07487559e+02,7.99953231e+01,-8.41903184e-06,5.80222854,4.18694916,2.04989311,-1.34509854,8.72053684e+01,6.81769875,-2.10825205,-1,-0.979137129391761
4.17123597e+02,7.99952414e+01,-8.45681551e-06,5.80275091,4.18835553,2.04734155,-1.34509854,8.80776875e+01,6.82047780,-2.09976388,-1,-0.9783392151691392
4.27150756e+02,7.99951554e+01,-8.50440442e-06,5.80345163,4.18980875,2.04478548,-1.34509855,8.90553667e+01,6.82335238,-2.09098829,-1,-0.9775089140870357
4.37583336e+02,7.99950650e+01,-8.56215701e-06,5.80433720,4.19131051,2.04222473,-1.34509855,9.01422575e+01,6.82632596,-2.08191476,-1,-0.9766450420308399
4.48015915e+02,7.99949746e+01,-8.61990960e-06,5.80522278,4.19281228,2.03966398,-1.34509855,9.12291483e+01,6.82929954,-2.07284123,-1,-0.9757811700574495
4.58598566e+02,7.99948824e+01,-8.67893464e-06,5.80617622,4.19432796,2.03710934,-1.34509855,9.23286619e+01,6.83230911,-2.06366042,-1,-0.9749048713394552
4.69895033e+02,7.99947818e+01,-8.74401211e-06,5.80745249,4.19590981,2.03458378,-1.34509855,9.34882158e+01,6.83548984,-2.05396933,-1,-0.9739694649323117
4.81191500e+02,7.99946811e+01,-8.80908958e-06,5.80872876,4.19749166,2.03205822,-1.34509855,9.46477697e+01,6.83867057,-2.04427824,-1,-0.9730340585251682
4.92487967e+02,7.99945805e+01,-8.87416705e-06,5.81000503,4.19907350,2.02953266,-1.34509855,9.58073236e+01,6.84185130,-2.03458714,-1,-0.9720986521180247
5.04289260e+02,7.99944733e+01,-8.94950333e-06,5.81148609,4.20071487,2.02699045,-1.34509854,9.70829573e+01,6.84515198,-2.02454073,-1,-0.9711214434841413
5.16600712e+02,7.99943594e+01,-9.03520684e-06,5.81317411,4.20241639,2.02443143,-1.34509854,9.84758976e+01,6.84857387,-2.01413524,-1,-0.9701019910232932
5.28912164e+02,7.99942454e+01,-9.12091035e-06,5.81486212,4.20411791,2.02187240,-1.34509854,9.98688378e+01,6.85199576,-2.00372975,-1,-0.9690825385624451
5.41223617e+02,7.99941315e+01,-9.20661386e-06,5.81655014,4.20581943,2.01931337,-1.34509854,1.01261778e+02,6.85541764,-1.99332426,-1,-0.9680630860187918
5.53973571e+02,7.99940106e+01,-9.32333427e-06,5.81838800,4.20760930,2.01665255,-1.34509854,1.03029624e+02,6.85894484,-1.98260699,-1,-0.9670073233044506
5.67260639e+02,7.99938811e+01,-9.47804671e-06,5.82040940,4.20950739,2.01386707,-1.34509854,1.05256685e+02,6.86260101,-1.97150783,-1,-0.9659070847485064
5.80547708e+02,7.99937516e+01,-9.63275914e-06,5.82243080,4.21140548,2.01108158,-1.34509854,1.07483747e+02,6.86625719,-1.96040868,-1,-0.9648068461097569
5.94076553e+02,7.99936179e+01,-9.79266570e-06,5.82452880,4.21332318,2.00829520,-1.34509853,1.09777397e+02,6.86997092,-1.94914058,-1,-0.9636865871567363
6.08249967e+02,7.99934731e+01,-9.96641962e-06,5.82683104,4.21529312,2.00550643,-1.34509853,1.12248572e+02,6.87383806,-1.93742210,-1,-0.962512954527464
6.22423381e+02,7.99933282e+01,-1.01401735e-05,5.82913328,4.21726307,2.00271765,-1.34509853,1.14719747e+02,6.87770521,-1.92570362,-1,-0.9613393218981917
6.37033505e+02,7.99931751e+01,-1.03233930e-05,5.83157822,4.21928160,1.99990306,-1.34509853,1.17320490e+02,6.88167451,-1.91368630,-1,-0.9601295274023762
6.52012520e+02,7.99930149e+01,-1.05146080e-05,5.83414370,4.22134117,1.99706666,-1.34509852,1.20030679e+02,6.88573010,-1.90141656,-1,-0.9588891868070646
6.67045079e+02,7.99928536e+01,-1.07071873e-05,5.83672555,4.22340503,1.99422987,-1.34509852,1.22758690e+02,6.88979810,-1.88911072,-1,-0.957644412489186
6.82811151e+02,7.99926773e+01,-1.09184562e-05,5.83953157,4.22552760,1.99138775,-1.34509852,1.25730857e+02,6.89403617,-1.87631040,-1,-0.9563388994677886
6.98577222e+02,7.99925010e+01,-1.11297251e-05,5.84233760,4.22765016,1.98854563,-1.34509852,1.28703024e+02,6.89827425,-1.86351008,-1,-0.9550333865291964
7.14976943e+02,7.99923112e+01,-1.13296377e-05,5.84533319,4.22982273,1.98569829,-1.34509852,1.31567268e+02,6.90265508,-1.85030001,-1,-0.9536754040645227
7.31592547e+02,7.99921167e+01,-1.15256813e-05,5.84839336,4.23201233,1.98284918,-1.34509851,1.34394742e+02,6.90708455,-1.83695034,-1,-0.952299545361075
7.48308150e+02,7.99919199e+01,-1.17244379e-05,5.85147943,4.23421321,1.97999045,-1.34509851,1.37260775e+02,6.91153608,-1.82353781,-1,-0.9509154062186805
7.65906313e+02,7.99917023e+01,-1.19471387e-05,5.85479402,4.23651367,1.97704682,-1.34509851,1.40467112e+02,6.91618235,-1.80957054,-1,-0.9494581865035115
7.83504476e+02,7.99914846e+01,-1.21698394e-05,5.85810861,4.23881414,1.97410318,-1.34509851,1.43673449e+02,6.92082863,-1.79560327,-1,-0.9480009667883426
8.01202059e+02,7.99912640e+01,-1.24070140e-05,5.86144481,4.24113059,1.97113838,-1.34509851,1.47065060e+02,6.92549690,-1.78157318,-1,-0.9465355145784476
8.19738134e+02,7.99910187e+01,-1.27662570e-05,5.86496329,4.24358188,1.96799503,-1.34509851,1.52019220e+02,6.93035067,-1.76701337,-1,-0.945000630856104
8.38274209e+02,7.99907734e+01,-1.31255000e-05,5.86848177,4.24603318,1.96485168,-1.34509850,1.56973380e+02,6.93520444,-1.75245356,-1,-0.9434657471337603
8.57388408e+02,7.99905099e+01,-1.34921427e-05,5.87212176,4.24855986,1.96161830,-1.34509850,1.62102781e+02,6.94018274,-1.73754146,-1,-0.941882991727843
8.76749231e+02,7.99902385e+01,-1.38619419e-05,5.87581360,4.25111871,1.95834653,-1.34509850,1.67306939e+02,6.94521417,-1.72247907,-1,-0.9402798145679601
8.96556488e+02,7.99899519e+01,-1.42443255e-05,5.87959213,4.25372919,1.95501484,-1.34509850,1.72730845e+02,6.95033977,-1.70715096,-1,-0.9386396703435987
9.16687757e+02,7.99896543e+01,-1.46358425e-05,5.88343358,4.25637714,1.95163967,-1.34509850,1.78314239e+02,6.95553373,-1.69162998,-1,-0.9369726962350983
9.37280283e+02,7.99893398e+01,-1.50438840e-05,5.88735402,4.25907437,1.94820542,-1.34509850,1.84173545e+02,6.96082262,-1.67584216,-1,-0.9352675276403801
9.58153587e+02,7.99890150e+01,-1.54619845e-05,5.89132253,4.26180161,1.94473520,-1.34509850,1.90200806e+02,6.96616929,-1.65989189,-1,-0.9335391091622972
9.79612919e+02,7.99886679e+01,-1.59031932e-05,5.89537597,4.26456405,1.94123705,-1.34509850,1.96588905e+02,6.97163510,-1.64360821,-1,-0.9317621645082014
1.00124784e+03,7.99883141e+01,-1.63513258e-05,5.89945487,4.26733703,1.93773052,-1.34509849,2.03085122e+02,6.97713659,-1.62722462,-1,-0.9299706801687664
1.02368676e+03,7.99879288e+01,-1.67514095e-05,5.90362498,4.27017433,1.93414099,-1.34509849,2.09110525e+02,6.98279245,-1.61041364,-1,-0.9281126205172505
1.04613008e+03,7.99875433e+01,-1.71512304e-05,5.90779559,4.27301197,1.93055100,-1.34509849,2.15133351e+02,6.98844916,-1.59360031,-1,-0.9262541965227775
1.06948976e+03,7.99871196e+01,-1.75831032e-05,5.91202660,4.27591400,1.92686246,-1.34509849,2.21708672e+02,6.99427492,-1.57632261,-1,-0.9243198931391778
1.09290647e+03,7.99866934e+01,-1.80169709e-05,5.91626138,4.27882003,1.92316779,-1.34509849,2.28318382e+02,7.00011119,-1.55901600,-1,-0.922380867374023
1.11682421e+03,7.99862401e+01,-1.85823417e-05,5.92052163,4.28180454,1.91932889,-1.34509849,2.36757542e+02,7.00603792,-1.54145978,-1,-0.920400353710734
1.14110471e+03,7.99857672e+01,-1.92429249e-05,5.92480033,4.28484587,1.91538557,-1.34509849,2.46521284e+02,7.01203013,-1.52372282,-1,-0.9183898016267374
1.16587525e+03,7.99852664e+01,-1.98999156e-05,5.92909940,4.28795625,1.91131436,-1.34509849,2.56414693e+02,7.01810629,-1.50575608,-1,-0.9163386716739474
1.19091310e+03,7.99847504e+01,-2.05549466e-05,5.93340957,4.29110428,1.90717338,-1.34509849,2.66378831e+02,7.02422824,-1.48766400,-1,-0.914265407058462
1.21659747e+03,7.99841954e+01,-2.12269248e-05,5.93773184,4.29433799,1.90286710,-1.34509849,2.76801356e+02,7.03045559,-1.46928767,-1,-0.9121386072137456
1.24254461e+03,7.99836239e+01,-2.19083788e-05,5.94205339,4.29760585,1.89849215,-1.34509849,2.87449699e+02,7.03672419,-1.45080028,-1,-0.9099900486420214
1.26896241e+03,7.99830222e+01,-2.26081550e-05,5.94637071,4.30093453,1.89399344,-1.34509849,2.98523127e+02,7.04306581,-1.43211628,-1,-0.9078025169666191
1.29587843e+03,7.99823869e+01,-2.33305504e-05,5.95067004,4.30432709,1.88935799,-1.34509849,3.10109455e+02,7.04948068,-1.41323554,-1,-0.905573730075744
1.32312700e+03,7.99817284e+01,-2.40686667e-05,5.95495302,4.30776204,1.88462959,-1.34509849,3.22059123e+02,7.05594305,-1.39422761,-1,-0.9033174063097826
1.35083420e+03,7.99810370e+01,-2.48292081e-05,5.95920827,4.31125516,1.87977097,-1.34509849,3.34534928e+02,7.06246926,-1.37504913,-1,-0.90102310558691
1.37906601e+03,7.99803061e+01,-2.56161384e-05,5.96342021,4.31481397,1.87475932,-1.34509849,3.47664194e+02,7.06906424,-1.35568803,-1,-0.8986853644188741
1.40766513e+03,7.99795465e+01,-2.64215481e-05,5.96759641,4.31841858,1.86963819,-1.34509849,3.61276205e+02,7.07570523,-1.33620471,-1,-0.896317208066391
1.43664879e+03,7.99787563e+01,-2.72462785e-05,5.97173237,4.32207099,1.86440135,-1.34509849,3.75407305e+02,7.08239324,-1.31659650,-1,-0.8939172097955627
1.46619968e+03,7.99779188e+01,-2.80991371e-05,5.97579969,4.32579277,1.85899146,-1.34509849,3.90354699e+02,7.08914629,-1.29681579,-1,-0.8914702419212004
1.49626583e+03,7.99770415e+01,-2.88690230e-05,5.97978958,4.32955691,1.85345811,-1.34509849,4.04532477e+02,7.09595378,-1.27689038,-1,-0.8889806078304587
1.52665349e+03,7.99761388e+01,-2.96100629e-05,5.98372742,4.33334882,1.84784323,-1.34509849,4.18573006e+02,7.10279359,-1.25687920,-1,-0.8864643510342323
1.55774903e+03,7.99751779e+01,-3.03721160e-05,5.98753686,4.33720668,1.84203223,-1.34509849,4.33575768e+02,7.10969845,-1.23669590,-1,-0.8838894780806276
1.58907062e+03,7.99741936e+01,-3.12440740e-05,5.99131344,4.34109419,1.83614548,-1.34509849,4.50473607e+02,7.11662402,-1.21645676,-1,-0.8812958870076025
1.62090301e+03,7.99731563e+01,-3.23643803e-05,5.99501576,4.34504873,1.83008757,-1.34509849,4.71653683e+02,7.12359642,-1.19609146,-1,-0.8786599990294682
1.65326215e+03,7.99720645e+01,-3.34365404e-05,5.99863886,4.34906238,1.82387182,-1.34509849,4.93039833e+02,7.13061185,-1.17561015,-1,-0.8759804934030052
1.68603196e+03,7.99709299e+01,-3.44893938e-05,6.00219381,4.35311882,1.81753642,-1.34509849,5.14897417e+02,7.13765887,-1.15504375,-1,-0.8732669821578631
1.71925215e+03,7.99697480e+01,-3.55329496e-05,6.00566819,4.35722030,1.81107064,-1.34509849,5.37483196e+02,7.14473852,-1.13438925,-1,-0.8705161770988544
1.75296364e+03,7.99685134e+01,-3.65753408e-05,6.00904583,4.36137025,1.80445957,-1.34509849,5.61046823e+02,7.15185025,-1.11364746,-1,-0.8677246898364781
1.78722923e+03,7.99672176e+01,-3.76230522e-05,6.01230419,4.36557528,1.79767868,-1.34509849,5.85887516e+02,7.15899366,-1.09282339,-1,-0.8648873202030739
1.82195155e+03,7.99658698e+01,-3.86775425e-05,6.01545849,4.36982637,1.79075365,-1.34509849,6.11877946e+02,7.16615923,-1.07193834,-1,-0.8620121309426717
1.85719320e+03,7.99644657e+01,-3.96358075e-05,6.01848256,4.37412265,1.78367314,-1.34509849,6.37477968e+02,7.17334482,-1.05100087,-1,-0.8590939384486549
1.89286310e+03,7.99630156e+01,-4.05283521e-05,6.02139601,4.37845435,1.77646647,-1.34509849,6.62985582e+02,7.18054354,-1.03002979,-1,-0.8561402846202351
1.92913133e+03,7.99615000e+01,-4.14266831e-05,6.02415508,4.38283607,1.76908254,-1.34509849,6.89976474e+02,7.18775618,-1.00902282,-1,-0.8531370859460163
1.96582090e+03,7.99599289e+01,-4.25581081e-05,6.02683643,4.38725824,1.76157888,-1.34509849,7.22162243e+02,7.19498395,-9.87974404e-01,-1,-0.8500989981214478
2.00296535e+03,7.99582986e+01,-4.38224014e-05,6.02943222,4.39172151,1.75395024,-1.34509849,7.58049645e+02,7.20222673,-9.66884276e-01,-1,-0.8470232438595338
2.04061916e+03,7.99566032e+01,-4.50138303e-05,6.03192863,4.39622541,1.74619065,-1.34509849,7.94535545e+02,7.20948381,-9.45753365e-01,-1,-0.8439053119320236
2.07885631e+03,7.99548349e+01,-4.61654916e-05,6.03430522,4.40076814,1.73829347,-1.34509849,8.32565827e+02,7.21675654,-9.24578421e-01,-1,-0.8407390764089253
2.11766994e+03,7.99529951e+01,-4.72965672e-05,6.03656293,4.40534367,1.73027127,-1.34509849,8.72572248e+02,7.22404364,-9.03361594e-01,-1,-0.8375251053340309
2.15703744e+03,7.99510862e+01,-4.84152411e-05,6.03870721,4.40994948,1.72213180,-1.34509849,9.14693573e+02,7.23134207,-8.82113552e-01,-1,-0.8342652709333088
2.19703902e+03,7.99491029e+01,-4.93891000e-05,6.04071692,4.41458387,1.71386787,-1.34509849,9.56646254e+02,7.23864675,-8.60845061e-01,-1,-0.8309529314002616
2.23761854e+03,7.99470519e+01,-5.03154452e-05,6.04260953,4.41924311,1.70549571,-1.34509849,1.00003165e+03,7.24595385,-8.39568788e-01,-1,-0.8275927354198007
2.27862561e+03,7.99449505e+01,-5.12403787e-05,6.04441751,4.42392066,1.69704458,-1.34509849,1.04511858e+03,7.25326209,-8.18289352e-01,-1,-0.8241971360685891
2.32039403e+03,7.99427431e+01,-5.25428977e-05,6.04611433,4.42864180,1.68845072,-1.34509849,1.10161120e+03,7.26057964,-7.96978380e-01,-1,-0.8207384929650188
2.36265976e+03,7.99420621e+01,-2.02791123e-05,6.04791078,4.43338925,1.67985404,-1.34509849,4.29992821e+02,7.26790602,-7.75643410e-01,-1,-0.8172386699987233
2.40554216e+03,7.99418497e+01,-4.93784733e-06,6.04957948,4.43815915,1.67114859,-1.34509849,1.09525439e+02,7.27524398,-7.54273163e-01,-1,-0.8136877835389399
2.44905128e+03,7.99416210e+01,-5.24809479e-06,6.05109269,4.44295357,1.66231635,-1.34509850,1.19844682e+02,7.28258609,-7.32887386e-01,-1,-0.8100850013932321
2.49323068e+03,7.99413751e+01,-5.53415413e-06,6.05248549,4.44777308,1.65337375,-1.34509850,1.30222930e+02,7.28992386,-7.11510995e-01,-1,-0.806426716566325
2.53803630e+03,7.99411134e+01,-5.80172347e-06,6.05377340,4.45261147,1.64434092,-1.34509850,1.40737391e+02,7.29725559,-6.90149298e-01,-1,-0.8027165774561026
2.58346763e+03,7.99408357e+01,-6.07563635e-06,6.05496684,4.45746724,1.63522608,-1.34509850,1.51964907e+02,7.30458101,-6.68802541e-01,-1,-0.7989546262932257
2.62962914e+03,7.99405343e+01,-6.46134866e-06,6.05608123,4.46235000,1.62601776,-1.34509850,1.66856633e+02,7.31191032,-6.47439140e-01,-1,-0.7951322124166198
2.67641068e+03,7.99402129e+01,-6.84813712e-06,6.05711648,4.46725391,1.61672757,-1.34509851,1.82582494e+02,7.31923833,-6.26078491e-01,-1,-0.791258456820995
