star_age,star_mass,star_mdot,log_L,log_Teff,log_R,log_surf_z,v_wind_Km_per_s,log_center_T,log_center_Rho,phase
2.68766934e+02,9.99923584e+01,-3.09180511e-05,6.06095649,4.32175152,1.90965237,-1.34509848,3.86000506e+02,7.02903387,-1.55249619,-1
2.74314211e+02,9.99921746e+01,-3.11458529e-05,6.06224914,4.32237933,1.90904306,-1.34509848,3.88947990e+02,7.03047372,-1.54823453,-1
2.79861488e+02,9.99919909e+01,-3.13736547e-05,6.06354178,4.32300714,1.90843376,-1.34509848,3.91895473e+02,7.03191356,-1.54397288,-1
2.85408764e+02,9.99918071e+01,-3.16014565e-05,6.06483443,4.32363495,1.90782446,-1.34509848,3.94842957e+02,7.03335341,-1.53971122,-1
2.90956041e+02,9.99916234e+01,-3.18292582e-05,6.06612708,4.32426276,1.90721516,-1.34509848,3.97790441e+02,7.03479326,-1.53544957,-1
2.96503317e+02,9.99914396e+01,-3.20570600e-05,6.06741973,4.32489058,1.90660586,-1.34509848,4.00737925e+02,7.03623311,-1.53118791,-1
3.02050594e+02,9.99912559e+01,-3.22848618e-05,6.06871237,4.32551839,1.90599656,-1.34509848,4.03685409e+02,7.03767295,-1.52692626,-1
3.07597871e+02,9.99910721e+01,-3.25126636e-05,6.07000502,4.32614620,1.90538726,-1.34509848,4.06632893e+02,7.03911280,-1.52266461,-1
3.13145147e+02,9.99908883e+01,-3.27404653e-05,6.07129767,4.32677401,1.90477796,-1.34509848,4.09580377e+02,7.04055265,-1.51840295,-1
3.18692424e+02,9.99907046e+01,-3.29682671e-05,6.07259032,4.32740183,1.90416866,-1.34509848,4.12527861e+02,7.04199250,-1.51414130,-1
3.24524312e+02,9.99905060e+01,-3.32451853e-05,6.07392352,4.32806533,1.90350824,-1.34509848,4.16133096e+02,7.04350249,-1.50967490,-1
3.30989844e+02,9.99902742e+01,-3.36314537e-05,6.07534700,4.32880831,1.90273402,-1.34509848,4.21202711e+02,7.04516866,-1.50475267,-1
3.37455375e+02,9.99900425e+01,-3.40177221e-05,6.07677048,4.32955129,1.90195980,-1.34509848,4.26272327e+02,7.04683483,-1.49983045,-1
3.43920906e+02,9.99898108e+01,-3.44039905e-05,6.07819396,4.33029427,1.90118558,-1.34509848,4.31341943e+02,7.04850099,-1.49490822,-1
3.50386438e+02,9.99895791e+01,-3.47902589e-05,6.07961743,4.33103725,1.90041136,-1.34509848,4.36411558e+02,7.05016716,-1.48998600,-1
3.56851969e+02,9.99893474e+01,-3.51765273e-05,6.08104091,4.33178023,1.89963714,-1.34509848,4.41481174e+02,7.05183333,-1.48506377,-1
3.63317501e+02,9.99891156e+01,-3.55627956e-05,6.08246439,4.33252321,1.89886293,-1.34509848,4.46550790e+02,7.05349949,-1.48014155,-1
3.70009184e+02,9.99888709e+01,-3.59555270e-05,6.08391476,4.33329458,1.89804537,-1.34509848,4.51753372e+02,7.05522000,-1.47506109,-1
3.77273101e+02,9.99885935e+01,-3.63646117e-05,6.08543314,4.33413779,1.89711815,-1.34509848,4.57292402e+02,7.05707799,-1.46958026,-1
3.84537018e+02,9.99883160e+01,-3.67736965e-05,6.08695153,4.33498099,1.89619093,-1.34509848,4.62831432e+02,7.05893598,-1.46409942,-1
3.91800936e+02,9.99880385e+01,-3.71827812e-05,6.08846991,4.33582420,1.89526371,-1.34509848,4.68370463e+02,7.06079397,-1.45861859,-1
3.99064853e+02,9.99877610e+01,-3.75918659e-05,6.08998829,4.33666740,1.89433650,-1.34509848,4.73909493e+02,7.06265196,-1.45313775,-1
4.06328770e+02,9.99874835e+01,-3.80009506e-05,6.09150668,4.33751061,1.89340928,-1.34509848,4.79448523e+02,7.06450995,-1.44765692,-1
4.13974946e+02,9.99871823e+01,-3.84263421e-05,6.09306199,4.33840126,1.89240563,-1.34509848,4.85311774e+02,7.06645738,-1.44191642,-1
4.21983754e+02,9.99868586e+01,-3.88672029e-05,6.09465232,4.33933691,1.89132949,-1.34509848,4.91482600e+02,7.06848967,-1.43592958,-1
4.29992562e+02,9.99865348e+01,-3.93080637e-05,6.09624266,4.34027257,1.89025335,-1.34509848,4.97653425e+02,7.07052196,-1.42994274,-1
4.38001370e+02,9.99862111e+01,-3.97489246e-05,6.09783300,4.34120822,1.88917721,-1.34509848,5.03824251e+02,7.07255426,-1.42395590,-1
4.46010178e+02,9.99858873e+01,-4.01897854e-05,6.09942334,4.34214388,1.88810106,-1.34509848,5.09995076e+02,7.07458655,-1.41796906,-1
4.54355670e+02,9.99855411e+01,-4.06477372e-05,6.10103955,4.34312080,1.88695532,-1.34509848,5.16518287e+02,7.07669545,-1.41176035,-1
4.63083661e+02,9.99851692e+01,-4.11251056e-05,6.10268517,4.34414462,1.88573050,-1.34509848,5.23441835e+02,7.07889139,-1.40529959,-1
4.71811652e+02,9.99847974e+01,-4.16024740e-05,6.10433079,4.34516843,1.88450569,-1.34509848,5.30365382e+02,7.08108733,-1.39883883,-1
4.80539643e+02,9.99844256e+01,-4.20798424e-05,6.10597640,4.34619224,1.88328087,-1.34509848,5.37288930e+02,7.08328327,-1.39237807,-1
4.89267634e+02,9.99840537e+01,-4.25572108e-05,6.10762202,4.34721605,1.88205606,-1.34509848,5.44212478e+02,7.08547921,-1.38591731,-1
4.98634993e+02,9.99836361e+01,-4.30698333e-05,6.10930562,4.34831731,1.88069534,-1.34509848,5.51913039e+02,7.08781662,-1.37904743,-1
5.08069176e+02,9.99832137e+01,-4.35861404e-05,6.11099319,4.34942666,1.87932043,-1.34509848,5.59694811e+02,7.09016882,-1.37213479,-1
5.17503360e+02,9.99827913e+01,-4.41024475e-05,6.11268076,4.35053601,1.87794551,-1.34509848,5.67476583e+02,7.09252101,-1.36522215,-1
5.26937543e+02,9.99823688e+01,-4.46187545e-05,6.11436833,4.35164536,1.87657059,-1.34509848,5.75258355e+02,7.09487321,-1.35830951,-1
5.36907424e+02,9.99819069e+01,-4.51014479e-05,6.11607083,4.35281536,1.87508184,-1.34509848,5.82928300e+02,7.09733829,-1.35107118,-1
5.47109884e+02,9.99814278e+01,-4.55695476e-05,6.11777981,4.35401170,1.87354366,-1.34509848,5.90549695e+02,7.09985238,-1.34369144,-1
5.57312344e+02,9.99809487e+01,-4.60376473e-05,6.11948878,4.35520803,1.87200549,-1.34509848,5.98171089e+02,7.10236646,-1.33631171,-1
5.67514804e+02,9.99804695e+01,-4.65057470e-05,6.12119776,4.35640436,1.87046731,-1.34509848,6.05792483e+02,7.10488055,-1.32893197,-1
5.77742550e+02,9.99799884e+01,-4.69750207e-05,6.12290696,4.35760368,1.86892327,-1.34509848,6.13447158e+02,7.10739972,-1.32153757,-1
5.88854286e+02,9.99794374e+01,-4.74853359e-05,6.12462423,4.35890749,1.86717429,-1.34509848,6.22265277e+02,7.11009665,-1.31363061,-1
5.99966022e+02,9.99788864e+01,-4.79956511e-05,6.12634150,4.36021130,1.86542530,-1.34509848,6.31083395e+02,7.11279358,-1.30572364,-1
6.11077758e+02,9.99783355e+01,-4.85059663e-05,6.12805877,4.36151511,1.86367631,-1.34509848,6.39901514e+02,7.11549051,-1.29781667,-1
6.22189493e+02,9.99777845e+01,-4.90162815e-05,6.12977604,4.36281892,1.86192732,-1.34509848,6.48719632e+02,7.11818744,-1.28990970,-1
6.33301229e+02,9.99772335e+01,-4.95265967e-05,6.13149331,4.36412273,1.86017834,-1.34509848,6.57537751e+02,7.12088437,-1.28200273,-1
6.45208318e+02,9.99766097e+01,-5.02765727e-05,6.13323134,4.36552873,1.85823536,-1.34509848,6.70235187e+02,7.12373980,-1.27363717,-1
6.57220815e+02,9.99759762e+01,-5.10583109e-05,6.13497214,4.36694828,1.85626667,-1.34509848,6.83446751e+02,7.12661623,-1.26521082,-1
6.69233312e+02,9.99753428e+01,-5.18400492e-05,6.13671293,4.36836782,1.85429798,-1.34509848,6.96658314e+02,7.12949267,-1.25678448,-1
6.81245809e+02,9.99747093e+01,-5.26217874e-05,6.13845372,4.36978736,1.85232929,-1.34509848,7.09869878e+02,7.13236910,-1.24835814,-1
6.93927906e+02,9.99740110e+01,-5.33922643e-05,6.14019943,4.37129406,1.85018875,-1.34509848,7.23649177e+02,7.13537221,-1.23956546,-1
7.06720885e+02,9.99733020e+01,-5.41608764e-05,6.14194595,4.37281520,1.84801974,-1.34509848,7.37522489e+02,7.13839629,-1.23071213,-1
7.19513864e+02,9.99725930e+01,-5.49294885e-05,6.14369248,4.37433633,1.84585073,-1.34509848,7.51395802e+02,7.14142037,-1.22185880,-1
7.32566362e+02,9.99718574e+01,-5.57031840e-05,6.14543550,4.37589130,1.84361230,-1.34509848,7.65653793e+02,7.14449117,-1.21287089,-1
7.46085994e+02,9.99710742e+01,-5.64860295e-05,6.14717223,4.37750717,1.84124892,-1.34509848,7.80604205e+02,7.14764608,-1.20364072,-1
7.59605626e+02,9.99702910e+01,-5.72688750e-05,6.14890897,4.37912305,1.83888554,-1.34509848,7.95554616e+02,7.15080099,-1.19441056,-1
7.73232018e+02,9.99694963e+01,-5.80560152e-05,6.15064248,4.38075262,1.83649315,-1.34509848,8.10716274e+02,7.15397423,-1.18512739,-1
7.87450482e+02,9.99686380e+01,-5.88669732e-05,6.15235817,4.38245819,1.83393985,-1.34509848,8.27049480e+02,7.15724917,-1.17555026,-1
8.01668947e+02,9.99677797e+01,-5.96779312e-05,6.15407385,4.38416377,1.83138655,-1.34509848,8.43382686e+02,7.16052412,-1.16597314,-1
8.15992772e+02,9.99669096e+01,-6.04939254e-05,6.15578496,4.38588253,1.82880457,-1.34509848,8.59963104e+02,7.16381633,-1.15634622,-1
8.30891861e+02,9.99659747e+01,-6.13374170e-05,6.15747109,4.38767334,1.82606602,-1.34509848,8.77893285e+02,7.16720282,-1.14644745,-1
8.45790949e+02,9.99650397e+01,-6.21809086e-05,6.15915722,4.38946415,1.82332746,-1.34509848,8.95823465e+02,7.17058932,-1.13654868,-1
8.60905355e+02,9.99640794e+01,-6.30343184e-05,6.16083160,4.39128117,1.82053061,-1.34509848,9.14317490e+02,7.17400958,-1.12655256,-1
8.76470897e+02,9.99630660e+01,-6.39085088e-05,6.16248133,4.39315311,1.81761160,-1.34509848,9.33992883e+02,7.17750058,-1.11635247,-1
8.92036438e+02,9.99620526e+01,-6.47826991e-05,6.16413107,4.39502505,1.81469259,-1.34509848,9.53668276e+02,7.18099157,-1.10615238,-1
9.08015046e+02,9.99609885e+01,-6.56748017e-05,6.16575431,4.39694554,1.81166322,-1.34509848,9.74547846e+02,7.18454417,-1.09577448,-1
9.24235925e+02,9.99598948e+01,-6.65774100e-05,6.16736200,4.39889452,1.80856911,-1.34509848,9.96133685e+02,7.18813291,-1.08529229,-1
9.40493246e+02,9.99587964e+01,-6.74814766e-05,6.16896705,4.40084766,1.80546536,-1.34509848,1.01783640e+03,7.19172680,-1.07479523,-1
9.57359864e+02,9.99576204e+01,-6.84099264e-05,6.17052792,4.40287037,1.80220037,-1.34509848,1.04149323e+03,7.19540687,-1.06404949,-1
9.74226482e+02,9.99564444e+01,-6.93383761e-05,6.17208879,4.40489309,1.79893537,-1.34509848,1.06515006e+03,7.19908693,-1.05330374,-1
9.91505174e+02,9.99552164e+01,-7.01892431e-05,6.17360794,4.40696026,1.79556060,-1.34509848,1.08876019e+03,7.20281910,-1.04240727,-1
1.00907533e+03,9.99539515e+01,-7.09852348e-05,6.17509756,4.40905888,1.79210817,-1.34509848,1.11233729e+03,7.20658812,-1.03140419,-1
1.02664549e+03,9.99526867e+01,-7.17812264e-05,6.17658719,4.41115750,1.78865574,-1.34509848,1.13591440e+03,7.21035714,-1.02040111,-1
1.04482795e+03,9.99513415e+01,-7.25925959e-05,6.17801521,4.41332287,1.78503901,-1.34509848,1.16156660e+03,7.21419787,-1.00919085,-1
1.06322602e+03,9.99499680e+01,-7.34093804e-05,6.17942154,4.41551175,1.78136443,-1.34509848,1.18794952e+03,7.21806385,-9.97907629e-01,-1
1.08162410e+03,9.99485946e+01,-7.42261649e-05,6.18082787,4.41770062,1.77768984,-1.34509848,1.21433244e+03,7.22192983,-9.86624410e-01,-1
1.10040754e+03,9.99471637e+01,-7.52240157e-05,6.18220789,4.41993356,1.77391397,-1.34509848,1.24504408e+03,7.22584331,-9.75203128e-01,-1
1.11961200e+03,9.99456700e+01,-7.64196871e-05,6.18355918,4.42221465,1.77002745,-1.34509849,1.28048499e+03,7.22980868,-9.63631009e-01,-1
1.13881646e+03,9.99441764e+01,-7.76153585e-05,6.18491046,4.42449573,1.76614093,-1.34509849,1.31592590e+03,7.23377405,-9.52058889e-01,-1
1.15861610e+03,9.99425919e+01,-7.87450690e-05,6.18621127,4.42684558,1.76209162,-1.34509849,1.35269730e+03,7.23780553,-9.40295231e-01,-1
1.17850833e+03,9.99409933e+01,-7.98645168e-05,6.18750422,4.42920613,1.75801700,-1.34509849,1.38967571e+03,7.24184730,-9.28501772e-01,-1
1.19874964e+03,9.99402006e+01,-6.14041017e-05,6.18883353,4.43160556,1.75388280,-1.34509849,1.07536394e+03,7.24592921,-9.16592463e-01,-1
1.21926977e+03,9.99400515e+01,-2.73041184e-05,6.19019188,4.43403603,1.74970103,-1.34509849,4.80456393e+02,7.25004318,-9.04590618e-01,-1
1.24004923e+03,9.99398959e+01,-7.37375209e-06,6.19149136,4.43648986,1.74544310,-1.34509849,1.33654015e+02,7.25418294,-8.92513135e-01,-1
1.26119822e+03,9.99397310e+01,-7.63337538e-06,6.19270694,4.43897697,1.74107669,-1.34509849,1.40371474e+02,7.25835944,-8.80327876e-01,-1
1.28257062e+03,9.99395601e+01,-7.89586658e-06,6.19389750,4.44148698,1.73665194,-1.34509849,1.47311095e+02,7.26255590,-8.68084658e-01,-1
1.30431399e+03,9.99393792e+01,-8.16312022e-06,6.19504653,4.44403503,1.73213035,-1.34509849,1.54619637e+02,7.26678549,-8.55745194e-01,-1
1.32629844e+03,9.99391914e+01,-8.43541589e-06,6.19616832,4.44660676,1.72754780,-1.34509849,1.62225151e+02,7.27103508,-8.43346904e-01,-1
1.34862797e+03,9.99389936e+01,-8.71492903e-06,6.19725112,4.44921236,1.72287800,-1.34509849,1.70255767e+02,7.27531329,-8.30864406e-01,-1
1.37128148e+03,9.99387868e+01,-8.97690682e-06,6.19829204,4.45184643,1.71813032,-1.34509849,1.78217672e+02,7.27961397,-8.18315701e-01,-1
1.39425759e+03,9.99385708e+01,-9.22142347e-06,6.19929127,4.45450885,1.71330508,-1.34509849,1.86111156e+02,7.28393704,-8.05701068e-01,-1
1.41744431e+03,9.99383486e+01,-9.46932725e-06,6.20026639,4.45718859,1.70843317,-1.34509849,1.94260914e+02,7.28827350,-7.93047340e-01,-1
1.44119102e+03,9.99381096e+01,-9.72623693e-06,6.20117740,4.45991435,1.70343715,-1.34509849,2.03092069e+02,7.29264555,-7.80289663e-01,-1
1.46493773e+03,9.99378706e+01,-9.98314662e-06,6.20208842,4.46264012,1.69844113,-1.34509849,2.11923225e+02,7.29701760,-7.67531986e-01,-1
1.48919919e+03,9.99376128e+01,-1.03277607e-05,6.20296096,4.46541070,1.69333624,-1.34509850,2.23203458e+02,7.30142821,-7.54661001e-01,-1
1.51369542e+03,9.99373465e+01,-1.07123782e-05,6.20381594,4.46820171,1.68818170,-1.34509850,2.35600753e+02,7.30585640,-7.41738335e-01,-1
1.53857020e+03,9.99370659e+01,-1.10869220e-05,6.20463461,4.47102389,1.68294669,-1.34509850,2.48289882e+02,7.31030908,-7.28743579e-01,-1
1.56371899e+03,9.99367749e+01,-1.14541737e-05,6.20542700,4.47386862,1.67765342,-1.34509850,2.61190267e+02,7.31477948,-7.15696638e-01,-1
1.58929199e+03,9.99364677e+01,-1.18185846e-05,6.20617570,4.47674551,1.67227399,-1.34509850,2.74620090e+02,7.31927448,-7.02576778e-01,-1
1.61505447e+03,9.99361530e+01,-1.21817266e-05,6.20690490,4.47963676,1.66685608,-1.34509850,2.88286391e+02,7.32378046,-6.89424349e-01,-1
1.64136135e+03,9.99358167e+01,-1.25462360e-05,6.20757856,4.48256728,1.66133186,-1.34509850,3.02767533e+02,7.32831566,-6.76187063e-01,-1
1.66783899e+03,9.99354734e+01,-1.29116858e-05,6.20823515,4.48550982,1.65577508,-1.34509850,3.17520172e+02,7.33285924,-6.62924902e-01,-1
1.69478060e+03,9.99351111e+01,-1.32802675e-05,6.20884580,4.48848469,1.65013068,-1.34509850,3.33028445e+02,7.33742474,-6.49597113e-01,-1
1.72207197e+03,9.99347349e+01,-1.36186230e-05,6.20941927,4.49148125,1.64442429,-1.34509850,3.48247104e+02,7.34200248,-6.36233245e-01,-1
1.74966111e+03,9.99343470e+01,-1.39312447e-05,6.20996109,4.49449629,1.63866512,-1.34509851,3.63219196e+02,7.34659066,-6.22838661e-01,-1
1.77770082e+03,9.99339407e+01,-1.42473100e-05,6.21046066,4.49753903,1.63282942,-1.34509851,3.78853367e+02,7.35119230,-6.09404406e-01,-1
1.80605688e+03,9.99335214e+01,-1.45657932e-05,6.21093056,4.50060122,1.62693999,-1.34509851,3.94952388e+02,7.35580341,-5.95942297e-01,-1
1.83463887e+03,9.99330911e+01,-1.49273727e-05,6.21138381,4.50367960,1.62100986,-1.34509851,4.12580190e+02,7.36042400,-5.82452680e-01,-1
1.86372918e+03,9.99326359e+01,-1.53859067e-05,6.21179958,4.50679440,1.61498815,-1.34509851,4.33647319e+02,7.36506594,-5.68901176e-01,-1
1.89309946e+03,9.99321672e+01,-1.58292671e-05,6.21218971,4.50992761,1.60891679,-1.34509851,4.54776605e+02,7.36971729,-5.55322043e-01,-1
1.92283702e+03,9.99316806e+01,-1.62527213e-05,6.21254622,4.51308498,1.60278031,-1.34509851,4.75987434e+02,7.37438098,-5.41706664e-01,-1
1.95302809e+03,9.99311720e+01,-1.66633846e-05,6.21285992,4.51626953,1.59656805,-1.34509851,4.97612497e+02,7.37905735,-5.28057401e-01,-1
1.98346188e+03,9.99306516e+01,-1.70681416e-05,6.21315085,4.51946831,1.59031595,-1.34509852,5.19487953e+02,7.38374025,-5.14390711e-01,-1
2.01441210e+03,9.99301060e+01,-1.74642159e-05,6.21339401,4.52269603,1.58398210,-1.34509852,5.42014798e+02,7.38843595,-5.00689867e-01,-1
2.04571158e+03,9.99295433e+01,-1.78560391e-05,6.21360574,4.52594231,1.57759540,-1.34509852,5.65048854e+02,7.39313898,-4.86971122e-01,-1
2.07730313e+03,9.99289665e+01,-1.82399580e-05,6.21379100,4.52920374,1.57116518,-1.34509852,5.88360171e+02,7.39784754,-4.73239481e-01,-1
2.10951208e+03,9.99283614e+01,-1.85603740e-05,6.21391824,4.53249315,1.56464997,-1.34509852,6.10676778e+02,7.40256133,-4.59502917e-01,-1
2.14193028e+03,9.99277460e+01,-1.88791365e-05,6.21402547,4.53579703,1.55809584,-1.34509852,6.33325859e+02,7.40727313,-4.45777591e-01,-1
2.17486116e+03,9.99271056e+01,-1.91938481e-05,6.21408365,4.53913632,1.55144635,-1.34509852,6.56789471e+02,7.41198003,-4.32079798e-01,-1
2.20795644e+03,9.99264570e+01,-1.95328603e-05,6.21413005,4.54248058,1.54478102,-1.34509853,6.81370015e+02,7.41669133,-4.18373337e-01,-1
2.24171724e+03,9.99257750e+01,-1.99702482e-05,6.21412874,4.54584498,1.53805156,-1.34509853,7.10472220e+02,7.42142045,-4.04631787e-01,-1
2.27579549e+03,9.99250769e+01,-2.03817133e-05,6.21409812,4.54922521,1.53127580,-1.34509853,7.39287289e+02,7.42615130,-3.90898923e-01,-1
2.31022484e+03,9.99243608e+01,-2.07645064e-05,6.21403508,4.55262294,1.52444881,-1.34509853,7.67784768e+02,7.43088406,-3.77175668e-01,-1
2.34524291e+03,9.99236158e+01,-2.11182934e-05,6.21391897,4.55604581,1.51754502,-1.34509853,7.96287746e+02,7.43561663,-3.63481695e-01,-1
2.38059499e+03,9.99228549e+01,-2.14595316e-05,6.21377384,4.55948075,1.51060258,-1.34509853,8.24896240e+02,7.44034742,-3.49807216e-01,-1
2.41631862e+03,9.99220764e+01,-2.17876973e-05,6.21359670,4.56292861,1.50361828,-1.34509853,8.53645329e+02,7.44507587,-3.36155076e-01,-1
2.45278911e+03,9.99212660e+01,-2.20458668e-05,6.21335662,4.56639217,1.49657112,-1.34509853,8.80744619e+02,7.44979058,-3.22571896e-01,-1
2.48954733e+03,9.99204437e+01,-2.22982286e-05,6.21309407,4.56985948,1.48950523,-1.34509853,9.07984301e+02,7.45449814,-3.09021834e-01,-1
2.52697810e+03,9.99195938e+01,-2.25389349e-05,6.21277914,4.57333534,1.48239605,-1.34509853,9.35622533e+02,7.45918887,-2.95549777e-01,-1
2.56469901e+03,9.99187314e+01,-2.28005182e-05,6.21244247,4.57681565,1.47526709,-1.34509854,9.64559767e+02,7.46387384,-2.82100073e-01,-1
2.60306469e+03,9.99178409e+01,-2.31084945e-05,6.21205747,4.58030585,1.46809419,-1.34509854,9.96383646e+02,7.46854604,-2.68700043e-01,-1
2.64202421e+03,9.99169269e+01,-2.33768896e-05,6.21162575,4.58379887,1.46089229,-1.34509854,1.02729365e+03,7.47319869,-2.55364902e-01,-1
2.68143580e+03,9.99159954e+01,-2.36186367e-05,6.21115885,4.58729270,1.45367118,-1.34509854,1.05760643e+03,7.47783465,-2.42083835e-01,-1
2.72157570e+03,9.99150370e+01,-2.38274465e-05,6.21063648,4.59078404,1.44642731,-1.34509854,1.08723953e+03,7.48243857,-2.28903290e-01,-1
2.76253523e+03,9.99140513e+01,-2.39888820e-05,6.21005297,4.59426219,1.43917926,-1.34509854,1.11532490e+03,7.48699108,-2.15888636e-01,-1
2.80389364e+03,9.99130527e+01,-2.41328324e-05,6.20943996,4.59773275,1.43193163,-1.34509855,1.14287587e+03,7.49151660,-2.02959156e-01,-1
2.84650225e+03,9.99120151e+01,-2.42529745e-05,6.20873582,4.60117305,1.42469897,-1.34509855,1.16996947e+03,7.49594655,-1.90321367e-01,-1
2.88936262e+03,9.99109699e+01,-2.43731034e-05,6.20801308,4.60460721,1.41746927,-1.34509855,1.19718632e+03,7.50035765,-1.77738023e-01,-1
2.93339473e+03,9.99098892e+01,-2.44931709e-05,6.20720377,4.60801283,1.41025339,-1.34509856,1.22497682e+03,7.50468101,-1.65408087e-01,-1
2.97825137e+03,9.99087857e+01,-2.45818392e-05,6.20633192,4.61138960,1.40306391,-1.34509856,1.25146400e+03,7.50892886,-1.53302391e-01,-1
3.02390643e+03,9.99076606e+01,-2.46424607e-05,6.20539949,4.61473598,1.39590494,-1.34509856,1.27675967e+03,7.51309915,-1.41428849e-01,-1
3.07116087e+03,9.99064946e+01,-2.46621212e-05,6.20434564,4.61800554,1.38883889,-1.34509857,1.30012373e+03,7.51708548,-1.30117297e-01,-1
3.11938670e+03,9.99053054e+01,-2.46669530e-05,6.20321782,4.62122009,1.38184588,-1.34509859,1.32268879e+03,7.52094643,-1.19183764e-01,-1
3.16901456e+03,9.99040825e+01,-2.46503816e-05,6.20198323,4.62435524,1.37495828,-1.34509860,1.34410062e+03,7.52462643,-1.08795845e-01,-1
3.21980158e+03,9.99028342e+01,-2.46034865e-05,6.20066016,4.62742249,1.36816226,-1.34509861,1.36374490e+03,7.52815907,-9.88453778e-02,-1
3.27189105e+03,9.99015576e+01,-2.45225189e-05,6.19923767,4.63041343,1.36146912,-1.34509861,1.38140311e+03,7.53152615,-8.93864408e-02,-1
3.32643712e+03,9.99002294e+01,-2.44245540e-05,6.19762980,4.63322507,1.35504192,-1.34509863,1.39751840e+03,7.53452423,-8.10323219e-02,-1
