star_age,star_mass,star_mdot,log_Teff,log_R,log_surf_z,surface_h1,surface_he3,log_center_T,log_center_Rho,phase,x
5.40564715e+02,1.63999989,-2.27384261e-10,3.70733393,1.39317107,-5.84509867,7.50981422e-01,4.13274932e-05,5.71351769,-2.96487005,-1,-1.0
5.69570247e+02,1.63999989,-2.23305642e-10,3.70758098,1.39006973,-5.84509867,7.50981422e-01,4.13274932e-05,5.71649943,-2.95595071,-1,-0.9999933614498986
6.00020587e+02,1.63999988,-2.19043731e-10,3.70783514,1.38687426,-5.84509867,7.50981422e-01,4.13274932e-05,5.71957203,-2.94675891,-1,-0.9999863922239008
6.31978890e+02,1.63999987,-2.14675200e-10,3.70809645,1.38358379,-5.84509867,7.50981422e-01,4.13274932e-05,5.72273642,-2.93729090,-1,-0.9999790778676043
6.65697711e+02,1.63999986,-2.10233137e-10,3.70836572,1.38018681,-5.84509867,7.50981422e-01,4.13274932e-05,5.72600345,-2.92751502,-1,-0.999971360578276
7.01186824e+02,1.63999986,-2.05742452e-10,3.70864259,1.37668722,-5.84509867,7.50981422e-01,4.13274932e-05,5.72936982,-2.91743945,-1,-0.9999632381189222
7.38371343e+02,1.63999985,-2.01218082e-10,3.70892638,1.37309341,-5.84509867,7.50981422e-01,4.13274932e-05,5.73282758,-2.90709270,-1,-0.9999547276288413
7.77724019e+02,1.63999984,-1.96663519e-10,3.70921986,1.36938480,-5.84509867,7.50981422e-01,4.13274932e-05,5.73639657,-2.89641211,-1,-0.9999457209086319
8.18898412e+02,1.63999983,-1.92091024e-10,3.70951862,1.36558408,-5.84509867,7.50981422e-01,4.13274932e-05,5.74005499,-2.88546515,-1,-0.9999362972486617
8.62402946e+02,1.63999983,-1.87501087e-10,3.70982537,1.36167118,-5.84509867,7.50981422e-01,4.13274933e-05,5.74382208,-2.87419178,-1,-0.9999263402849834
9.07972668e+02,1.63999982,-1.82903907e-10,3.71013875,1.35766393,-5.84509867,7.50981422e-01,4.13274933e-05,5.74768055,-2.86264464,-1,-0.9999159106578832
9.56035689e+02,1.63999981,-1.78305024e-10,3.71045967,1.35354834,-5.84509867,7.50981422e-01,4.13274933e-05,5.75164361,-2.85078220,-1,-0.9999049103847997
1.00652031e+03,1.63999980,-1.73711050e-10,3.71078754,1.34933306,-5.84509867,7.50981422e-01,4.13274933e-05,5.75570337,-2.83863023,-1,-0.9998933558756166
1.05951123e+03,1.63999979,-1.69127461e-10,3.71112220,1.34501992,-5.84509867,7.50981422e-01,4.13274933e-05,5.75985773,-2.82619357,-1,-0.9998812277451159
1.11532617e+03,1.63999978,-1.64561793e-10,3.71146408,1.34060238,-5.84509867,7.50981422e-01,4.13274933e-05,5.76411368,-2.81345237,-1,-0.999868453275901
1.17401074e+03,1.63999977,-1.60019430e-10,3.71181743,1.33608495,-5.84509867,7.50981422e-01,4.13274933e-05,5.76846652,-2.80041861,-1,-0.9998550220291264
1.23564897e+03,1.63999976,-1.55517769e-10,3.71217569,1.33147026,-5.84509867,7.50981422e-01,4.13274934e-05,5.77291387,-2.78710225,-1,-0.9998409147726894
1.30040177e+03,1.63999975,-1.51031153e-10,3.71253700,1.32675932,-5.84509867,7.50981422e-01,4.13274934e-05,5.77745492,-2.77350324,-1,-0.999826094678819
1.36845147e+03,1.63999974,-1.46568677e-10,3.71290552,1.32195175,-5.84509867,7.50981422e-01,4.13274934e-05,5.78209003,-2.75962411,-1,-0.9998105200173084
1.43996118e+03,1.63999973,-1.42188461e-10,3.71327980,1.31704945,-5.84509867,7.50981422e-01,4.13274935e-05,5.78681784,-2.74546522,-1,-0.9997941534568685
1.51509838e+03,1.63999972,-1.37863199e-10,3.71365954,1.31205436,-5.84509867,7.50981422e-01,4.13274935e-05,5.79163637,-2.73103468,-1,-0.9997769566660399
1.59403914e+03,1.63999971,-1.33557492e-10,3.71404527,1.30696762,-5.84509867,7.50981422e-01,4.13274936e-05,5.79654462,-2.71633616,-1,-0.999758889347354
1.67697625e+03,1.63999970,-1.29148351e-10,3.71443753,1.30178831,-5.84509867,7.50981422e-01,4.13274937e-05,5.80154329,-2.70136710,-1,-0.9997399073766046
1.76402043e+03,1.63999969,-1.24921934e-10,3.71483555,1.29652086,-5.84509867,7.50981422e-01,4.13274939e-05,5.80662822,-2.68613722,-1,-0.999719985413099
1.85554793e+03,1.63999968,-1.20815874e-10,3.71523928,1.29116518,-5.84509867,7.50981422e-01,4.13274940e-05,5.81179939,-2.67064857,-1,-0.9996990373437996
1.95158177e+03,1.63999967,-1.16793476e-10,3.71565011,1.28572694,-5.84509867,7.50981422e-01,4.13274943e-05,5.81705125,-2.65491721,-1,-0.9996770579000761
2.05254281e+03,1.63999966,-1.12845086e-10,3.71606418,1.28020493,-5.84509867,7.50981422e-01,4.13274946e-05,5.82238552,-2.63893828,-1,-0.9996539507589167
2.15845097e+03,1.63999964,-1.08986838e-10,3.71648362,1.27460464,-5.84509867,7.50981422e-01,4.13274949e-05,5.82779638,-2.62273095,-1,-0.9996297113611942
2.26973755e+03,1.63999963,-1.05205052e-10,3.71690809,1.26892511,-5.84509867,7.50981422e-01,4.13274954e-05,5.83328490,-2.60629057,-1,-0.9996042409944745
2.38658638e+03,1.63999962,-1.01482685e-10,3.71733578,1.26316960,-5.84509867,7.50981422e-01,4.13274961e-05,5.83884851,-2.58962325,-1,-0.9995774975852435
2.50923094e+03,1.63999961,-9.78793190e-11,3.71777069,1.25734027,-5.84509867,7.50981422e-01,4.13274969e-05,5.84448528,-2.57273418,-1,-0.9995494276964988
2.63794473e+03,1.63999960,-9.43565200e-11,3.71820883,1.25144020,-5.84509867,7.50981422e-01,4.13274980e-05,5.85019209,-2.55563476,-1,-0.9995199687317865
2.77316397e+03,1.63999958,-9.09151945e-11,3.71865145,1.24546960,-5.84509867,7.50981422e-01,4.13274994e-05,5.85596905,-2.53832710,-1,-0.999489020852623
2.91518181e+03,1.63999957,-8.75638222e-11,3.71909770,1.23943772,-5.84509867,7.50981422e-01,4.13275013e-05,5.86169364,-2.52103566,-1,-0.9994565169652223
3.06417905e+03,1.63999956,-8.42991079e-11,3.71954805,1.23333490,-5.84509867,7.50981422e-01,4.13275038e-05,5.86759312,-2.50334840,-1,-0.9994224156895517
3.22056869e+03,1.63999955,-8.11215680e-11,3.72000258,1.22716937,-5.84509867,7.50981422e-01,4.13275070e-05,5.87355279,-2.48547926,-1,-0.9993866225015324
3.38469495e+03,1.63999953,-7.80165145e-11,3.72045782,1.22094186,-5.84509867,7.50981422e-01,4.13275113e-05,5.87957823,-2.46741547,-1,-0.9993490586188924
3.55696996e+03,1.63999952,-7.50309232e-11,3.72091786,1.21465521,-5.84509867,7.50981422e-01,4.13275169e-05,5.88566589,-2.44916717,-1,-0.9993096297166714
3.73777744e+03,1.63999951,-7.21214212e-11,3.72138032,1.20831229,-5.84509867,7.50981422e-01,4.13275243e-05,5.89181159,-2.43074658,-1,-0.9992682479721586
3.92754655e+03,1.63999949,-6.92988901e-11,3.72184743,1.20191301,-5.84509867,7.50981422e-01,4.13275342e-05,5.89801378,-2.41215712,-1,-0.9992248151627061
4.12669055e+03,1.63999948,-6.65674516e-11,3.72231427,1.19546162,-5.84509867,7.50981422e-01,4.13275471e-05,5.90426765,-2.39341610,-1,-0.9991792367047283
4.33568262e+03,1.63999947,-6.39190635e-11,3.72278556,1.18895777,-5.84509867,7.50981422e-01,4.13275644e-05,5.91057438,-2.37451420,-1,-0.9991314043006378
4.55496568e+03,1.63999945,-6.13560269e-11,3.72325549,1.18240511,-5.84509867,7.50981422e-01,4.13275872e-05,5.91693060,-2.35546104,-1,-0.9990812165785099
4.78505123e+03,1.63999944,-5.88836434e-11,3.72372635,1.17580517,-5.84509867,7.50981422e-01,4.13276174e-05,5.92333462,-2.33626137,-1,-0.9990285564703874
5.02662607e+03,1.63999942,-5.65876618e-11,3.72419926,1.16916423,-5.84509867,7.50981422e-01,4.13276579e-05,5.92978026,-2.31693764,-1,-0.9989732667870757
5.28002970e+03,1.63999941,-5.42902226e-11,3.72467368,1.16248131,-5.84509867,7.50981422e-01,4.13277116e-05,5.93626856,-2.29748927,-1,-0.9989152698265779
5.54580230e+03,1.63999940,-5.20548661e-11,3.72515013,1.15575940,-5.84509867,7.50981422e-01,4.13277828e-05,5.94279568,-2.27792362,-1,-0.9988544419568919
5.82494189e+03,1.63999938,-4.98930147e-11,3.72562664,1.14899372,-5.84509867,7.50981422e-01,4.13278780e-05,5.94936703,-2.25822056,-1,-0.9987905547593224
6.11776817e+03,1.63999937,-4.78071383e-11,3.72610398,1.14219148,-5.84509867,7.50981422e-01,4.13280045e-05,5.95597568,-2.23840334,-1,-0.9987235350635356
6.42492924e+03,1.63999935,-4.58067547e-11,3.72658214,1.13535210,-5.84509867,7.50981422e-01,4.13281726e-05,5.96262281,-2.21847033,-1,-0.998653234537678
6.74712282e+03,1.63999934,-4.38755225e-11,3.72706099,1.12847754,-5.84509867,7.50981422e-01,4.13283960e-05,5.96930659,-2.19842841,-1,-0.9985794934932742
7.08516378e+03,1.63999933,-4.20117128e-11,3.72753974,1.12156894,-5.84509867,7.50981421e-01,4.13286934e-05,5.97602565,-2.17828150,-1,-0.9985021254295107
7.44008507e+03,1.63999931,-4.02208689e-11,3.72802217,1.11462647,-5.84509867,7.50981421e-01,4.13290908e-05,5.98277969,-2.15803078,-1,-0.998420893933198
7.81244215e+03,1.63999930,-3.85038532e-11,3.72850476,1.10765537,-5.84509867,7.50981421e-01,4.13296202e-05,5.98956311,-2.13768910,-1,-0.9983356718751721
8.20304888e+03,1.63999928,-3.68504673e-11,3.72898639,1.10065553,-5.84509867,7.50981421e-01,4.13303250e-05,5.99637616,-2.11725576,-1,-0.9982462729857798
8.61283435e+03,1.63999927,-3.52601540e-11,3.72946717,1.09363025,-5.84509867,7.50981421e-01,4.13312633e-05,6.00321593,-2.09674578,-1,-0.9981524846224633
9.04269690e+03,1.63999925,-3.37262170e-11,3.72994578,1.08657842,-5.84509867,7.50981420e-01,4.13325118e-05,6.01008362,-2.07615533,-1,-0.9980541011804747
9.49370900e+03,1.63999924,-3.22630822e-11,3.73042431,1.07950297,-5.84509867,7.50981420e-01,4.13341742e-05,6.01697596,-2.05548875,-1,-0.9979508772016085
9.96687393e+03,1.63999922,-3.08530586e-11,3.73090109,1.07240642,-5.84509867,7.50981419e-01,4.13363866e-05,6.02389062,-2.03475339,-1,-0.9978425830633036
1.04633018e+04,1.63999921,-2.95035639e-11,3.73137719,1.06528955,-5.84509867,7.50981418e-01,4.13393305e-05,6.03082735,-2.01394836,-1,-0.9977289646926182
1.09841594e+04,1.63999919,-2.82073228e-11,3.73185193,1.05815532,-5.84509867,7.50981417e-01,4.13432463e-05,6.03778311,-1.99308653,-1,-0.9976097550441527
1.15306708e+04,1.63999918,-2.69659976e-11,3.73232561,1.05100540,-5.84509867,7.50981415e-01,4.13484529e-05,6.04475671,-1.97217041,-1,-0.9974846739627279
1.21041582e+04,1.63999916,-2.57736569e-11,3.73279564,1.04384491,-5.84509867,7.50981413e-01,4.13553740e-05,6.05174224,-1.95121936,-1,-0.9973534188339683
1.27060351e+04,1.63999915,-2.46351061e-11,3.73326378,1.03667600,-5.84509867,7.50981409e-01,4.13645744e-05,6.05873759,-1.93023713,-1,-0.997215666147498
1.33377438e+04,1.63999913,-2.35451372e-11,3.73373282,1.02950141,-5.84509867,7.50981405e-01,4.13767861e-05,6.06573960,-1.90923560,-1,-0.9970710858014311
1.40006376e+04,1.63999912,-2.24975591e-11,3.73419626,1.02232614,-5.84509867,7.50981400e-01,4.13929657e-05,6.07274421,-1.88822161,-1,-0.9969193680634775
1.46964742e+04,1.63999910,-2.15028716e-11,3.73465704,1.01515454,-5.84509867,7.50981393e-01,4.14143947e-05,6.07974742,-1.86721598,-1,-0.9967601106455662
1.54271192e+04,1.63999909,-2.05535495e-11,3.73511553,1.00799602,-5.84509867,7.50981383e-01,4.14427516e-05,6.08674050,-1.84624046,-1,-0.9965928865643529
1.61945335e+04,1.63999907,-1.96467280e-11,3.73557252,1.00085898,-5.84509867,7.50981371e-01,4.14802099e-05,6.09371404,-1.82532824,-1,-0.9964172470250039
1.70006373e+04,1.63999906,-1.87828593e-11,3.73602354,9.93752481e-01,-5.84509867,7.50981354e-01,4.15295801e-05,6.10065961,-1.80449532,-1,-0.9962327525477712
1.78477932e+04,1.63999904,-1.79613630e-11,3.73646962,9.86690642e-01,-5.84509867,7.50981333e-01,4.15945009e-05,6.10756349,-1.78378667,-1,-0.9960388623999948
1.87385335e+04,1.63999903,-1.71820630e-11,3.73690983,9.79690363e-01,-5.84509867,7.50981304e-01,4.16796211e-05,6.11440893,-1.76325123,-1,-0.99583499700946
1.96756151e+04,1.63999901,-1.64444963e-11,3.73734216,9.72771740e-01,-5.84509867,7.50981267e-01,4.17908118e-05,6.12117600,-1.74295078,-1,-0.9956205253993319
2.06622109e+04,1.63999899,-1.57472206e-11,3.73776940,9.65957954e-01,-5.84509867,7.50981219e-01,4.19353355e-05,6.12784192,-1.72295409,-1,-0.9953947213820813
2.17016383e+04,1.63999898,-1.50951752e-11,3.73818440,9.59279649e-01,-5.84509867,7.50981157e-01,4.21222209e-05,6.13437676,-1.70334964,-1,-0.995156825698195
2.27975079e+04,1.63999896,-1.44822306e-11,3.73858514,9.52770270e-01,-5.84509867,7.50981077e-01,4.23619017e-05,6.14074795,-1.68423728,-1,-0.99490601198293
2.39538407e+04,1.63999895,-1.39136650e-11,3.73897325,9.46466107e-01,-5.84509867,7.50980976e-01,4.26663146e-05,6.14692000,-1.66572349,-1,-0.9946413599425314
2.51758003e+04,1.63999893,-1.33873069e-11,3.73934625,9.40407627e-01,-5.84509867,7.50980848e-01,4.30499034e-05,6.15285276,-1.64792932,-1,-0.9943616877742555
2.64684685e+04,1.63999891,-1.29039807e-11,3.73970077,9.34635850e-01,-5.84509867,7.50980688e-01,4.35275885e-05,6.15850582,-1.63097286,-1,-0.9940658323970766
2.78344371e+04,1.63999890,-1.24626474e-11,3.74003891,9.29173158e-01,-5.84509867,7.50980494e-01,4.41097167e-05,6.16385672,-1.61491929,-1,-0.9937532006209042
2.92813760e+04,1.63999888,-1.20603075e-11,3.74034872,9.24055645e-01,-5.84509867,7.50980260e-01,4.48124345e-05,6.16887009,-1.59987710,-1,-0.9934220370214483
3.08121962e+04,1.63999886,-1.16996053e-11,3.74063637,9.19281517e-01,-5.84509867,7.50979984e-01,4.56412162e-05,6.17354799,-1.58584191,-1,-0.9930716753527199
3.24307495e+04,1.63999884,-1.13721831e-11,3.74090353,9.14831070e-01,-5.84509867,7.50979665e-01,4.65983103e-05,6.17790967,-1.57275485,-1,-0.9927012340460832
3.41416063e+04,1.63999882,-1.10747232e-11,3.74115245,9.10667902e-01,-5.84509867,7.50979304e-01,4.76815443e-05,6.18199064,-1.56051223,-1,-0.9923096670655827
3.59479986e+04,1.63999880,-1.08013908e-11,3.74138724,9.06726159e-01,-5.84509867,7.50978904e-01,4.88815397e-05,6.18585518,-1.54891985,-1,-0.991896234697362
3.78517708e+04,1.63999878,-1.05455553e-11,3.74161274,9.02926960e-01,-5.84509867,7.50978470e-01,5.01829344e-05,6.18958068,-1.53774461,-1,-0.99146051481016
3.98588495e+04,1.63999876,-1.03009086e-11,3.74183564,8.99182114e-01,-5.84509867,7.50978008e-01,5.15701911e-05,6.19325342,-1.52672944,-1,-0.9910011509720024
4.19739571e+04,1.63999874,-1.00601474e-11,3.74205964,8.95384135e-01,-5.84509867,7.50977524e-01,5.30206118e-05,6.19697871,-1.51555553,-1,-0.9905170623584109
4.41920984e+04,1.63999872,-9.81562298e-12,3.74229142,8.91438393e-01,-5.84509867,7.50977029e-01,5.45059003e-05,6.20084931,-1.50394656,-1,-0.9900093922301075
4.65192406e+04,1.63999870,-9.56227339e-12,3.74253753,8.87236392e-01,-5.84509867,7.50976531e-01,5.59999716e-05,6.20497169,-1.49158023,-1,-0.9894767748629208
4.89591118e+04,1.63999867,-9.29242576e-12,3.74280502,8.82650994e-01,-5.84509867,7.50976042e-01,5.74669245e-05,6.20947063,-1.47808450,-1,-0.9889183569996641
5.15040167e+04,1.63999865,-9.00135986e-12,3.74309906,8.77591243e-01,-5.84509867,7.50975574e-01,5.88699629e-05,6.21443570,-1.46318759,-1,-0.9883358998779728
5.41503607e+04,1.63999863,-8.68453681e-12,3.74342458,8.71948364e-01,-5.84509867,7.50975142e-01,6.01668754e-05,6.21997368,-1.44657182,-1,-0.98773022620064
5.68921681e+04,1.63999860,-8.34094986e-12,3.74378982,8.65613388e-01,-5.84509867,7.50974761e-01,6.13088858e-05,6.22619168,-1.42791355,-1,-0.9871027036372484
5.97182237e+04,1.63999858,-7.97139474e-12,3.74419416,8.58522278e-01,-5.84509867,7.50974447e-01,6.22518419e-05,6.23315291,-1.40702508,-1,-0.9864558990314984
6.26187568e+04,1.63999856,-7.57908076e-12,3.74464041,8.50659606e-01,-5.84509867,7.50974210e-01,6.29626460e-05,6.24087423,-1.38386006,-1,-0.9857920486216869
6.55889773e+04,1.63999854,-7.17170484e-12,3.74511946,8.42095956e-01,-5.84509867,7.50974053e-01,6.34344530e-05,6.24928570,-1.35862543,-1,-0.9851122487269173
6.86370670e+04,1.63999852,-6.76462409e-12,3.74562991,8.32993522e-01,-5.84509867,7.50973965e-01,6.36979861e-05,6.25822802,-1.33179174,-1,-0.9844146267633936
7.17847325e+04,1.63999850,-6.36662295e-12,3.74614838,8.23574099e-01,-5.84509867,7.50973927e-01,6.38123664e-05,6.26748380,-1.30401216,-1,-0.9836942147011679
7.50614789e+04,1.63999848,-5.98852939e-12,3.74667472,8.14049224e-01,-5.84509867,7.50973915e-01,6.38484695e-05,6.27675616,-1.27582017,-1,-0.982944259653081
7.84879908e+04,1.63999846,-5.63487422e-12,3.74718586,8.04572292e-01,-5.84509867,7.50973912e-01,6.38556336e-05,6.28560939,-1.24720074,-1,-0.982160027496227
8.20847987e+04,1.63999844,-5.30552436e-12,3.74769424,7.95190509e-01,-5.84509867,7.50973912e-01,6.38568110e-05,6.29429722,-1.21869578,-1,-0.9813368193768546
8.58582551e+04,1.63999842,-4.99946654e-12,3.74818437,7.85918573e-01,-5.84509867,7.50973912e-01,6.38569275e-05,6.30285275,-1.19022394,-1,-0.9804731813864638
8.98210163e+04,1.63999840,-4.71363378e-12,3.74866406,7.76753828e-01,-5.84509867,7.50973912e-01,6.38569355e-05,6.31118587,-1.16197359,-1,-0.9795662168541144
9.39812556e+04,1.63999838,-4.44636317e-12,3.74913352,7.67693369e-01,-5.84509867,7.50973912e-01,6.38569358e-05,6.31933899,-1.13384533,-1,-0.9786140551414213
9.83485352e+04,1.63999836,-4.19749769e-12,3.74959567,7.58732880e-01,-5.84509867,7.50973912e-01,6.38569359e-05,6.32734708,-1.10578095,-1,-0.9776145077298707
1.02932449e+05,1.63999834,-3.96467945e-12,3.75005016,7.49869788e-01,-5.84509867,7.50973912e-01,6.38569359e-05,6.33522070,-1.07776652,-1,-0.9765653788457112
1.07747050e+05,1.63999832,-3.74712520e-12,3.75050438,7.41099002e-01,-5.84509867,7.50973912e-01,6.38569358e-05,6.34296977,-1.04978468,-1,-0.9754634521526736
1.12800848e+05,1.63999830,-3.54335479e-12,3.75094614,7.32423216e-01,-5.84509867,7.50973912e-01,6.38569358e-05,6.35060428,-1.02182813,-1,-0.9743067799969912
1.18105093e+05,1.63999829,-3.35272732e-12,3.75138254,7.23837648e-01,-5.84509867,7.50973912e-01,6.38569358e-05,6.35813753,-9.93879388e-01,-1,-0.9730927875702229
1.23671825e+05,1.63999827,-3.17401079e-12,3.75181432,7.15339965e-01,-5.84509867,7.50973912e-01,6.38569358e-05,6.36557903,-9.65926320e-01,-1,-0.9718187192551566
1.29519070e+05,1.63999825,-3.00631693e-12,3.75223672,7.06932316e-01,-5.84509867,7.50973912e-01,6.38569358e-05,6.37293647,-9.37958014e-01,-1,-0.9704804494076177
1.35655653e+05,1.63999823,-2.84919717e-12,3.75265690,6.98608941e-01,-5.84509867,7.50973913e-01,6.38569358e-05,6.38022289,-9.09958860e-01,-1,-0.9690759582334288
1.42097467e+05,1.63999822,-2.70192348e-12,3.75307272,6.90370438e-01,-5.84509867,7.50973913e-01,6.38569357e-05,6.38744655,-8.81918850e-01,-1,-0.9676016082720958
1.48864317e+05,1.63999820,-2.56339214e-12,3.75348717,6.82215799e-01,-5.84509867,7.50973913e-01,6.38569357e-05,6.39461642,-8.53821978e-01,-1,-0.9660528667164028
1.55964709e+05,1.63999818,-2.43351623e-12,3.75389926,6.74143806e-01,-5.84509867,7.50973913e-01,6.38569357e-05,6.40173967,-8.25663010e-01,-1,-0.9644277867822959
1.63426419e+05,1.63999816,-2.31149438e-12,3.75430782,6.66157241e-01,-5.84509867,7.50973913e-01,6.38569356e-05,6.40882495,-7.97424249e-01,-1,-0.9627200113249516
1.71257216e+05,1.63999814,-2.19648386e-12,3.75471785,6.58251605e-01,-5.84509868,7.50973914e-01,6.38569356e-05,6.41588086,-7.69097084e-01,-1,-0.960927762238878
1.79485892e+05,1.63999813,-2.08887170e-12,3.75512565,6.50431507e-01,-5.84509868,7.50973914e-01,6.38569355e-05,6.42291429,-7.40669777e-01,-1,-0.9590444498454402
1.88123549e+05,1.63999811,-1.98739637e-12,3.75553661,6.42693677e-01,-5.84509868,7.50973914e-01,6.38569354e-05,6.42993495,-7.12127483e-01,-1,-0.9570675332092323
1.97202664e+05,1.63999809,-1.89210051e-12,3.75594610,6.35042777e-01,-5.84509868,7.50973915e-01,6.38569354e-05,6.43694831,-6.83464465e-01,-1,-0.9549895792588098
2.06732522e+05,1.63999807,-1.80233006e-12,3.75635792,6.27476590e-01,-5.84509868,7.50973915e-01,6.38569353e-05,6.44396387,-6.54660918e-01,-1,-0.9528084629189391
2.16753901e+05,1.63999806,-1.71801850e-12,3.75677505,6.19999484e-01,-5.84509868,7.50973916e-01,6.38569352e-05,6.45098988,-6.25702215e-01,-1,-0.9505148512528536
2.27277518e+05,1.63999804,-1.63854883e-12,3.75719378,6.12612073e-01,-5.84509868,7.50973917e-01,6.38569350e-05,6.45803282,-5.96584607e-01,-1,-0.9481062914408143
2.38337689e+05,1.63999802,-1.56398082e-12,3.75761859,6.05317105e-01,-5.84509868,7.50973918e-01,6.38569349e-05,6.46509961,-5.67289234e-01,-1,-0.9455749295160233
2.49967316e+05,1.63999800,-1.49364864e-12,3.75805366,5.98117223e-01,-5.84509868,7.50973919e-01,6.38569347e-05,6.47220005,-5.37797446e-01,-1,-0.942913235136495
2.62187028e+05,1.63999799,-1.42796950e-12,3.75850195,5.91013538e-01,-5.84509868,7.50973920e-01,6.38569346e-05,6.47934403,-5.08092007e-01,-1,-0.9401164869045996
2.75039698e+05,1.63999797,-1.36601152e-12,3.75895278,5.84016766e-01,-5.84509869,7.50973921e-01,6.38569344e-05,6.48653688,-4.78166699e-01,-1,-0.9371748723970208
