star_age,star_mass,star_mdot,log_Teff,log_R,log_surf_z,surface_h1,surface_he3,log_center_T,log_center_Rho,phase,x
4.39710627e+02,2.49999984,-3.37465086e-10,3.66271448,1.57123494,-2.84509855,7.47426486e-01,4.16806606e-05,5.71587473,-3.31994355,-1,-1.0
4.61008107e+02,2.49999983,-3.33404392e-10,3.66295211,1.56899492,-2.84509855,7.47426486e-01,4.16806606e-05,5.71803606,-3.31347320,-1,-0.99999064473601
4.83311589e+02,2.49999982,-3.29163977e-10,3.66318654,1.56668138,-2.84509855,7.47426486e-01,4.16806606e-05,5.72026877,-3.30678981,-1,-0.9999808475693027
5.06688371e+02,2.49999981,-3.24660800e-10,3.66343508,1.56429067,-2.84509855,7.47426486e-01,4.16806606e-05,5.72257630,-3.29988220,-1,-0.9999705789381385
5.31186775e+02,2.49999981,-3.20090772e-10,3.66372172,1.56182050,-2.84509855,7.47426486e-01,4.16806606e-05,5.72495997,-3.29274527,-1,-0.9999598176162942
5.56871272e+02,2.49999980,-3.15368854e-10,3.66398425,1.55927013,-2.84509855,7.47426486e-01,4.16806606e-05,5.72742205,-3.28537381,-1,-0.9999485352838358
5.83798315e+02,2.49999979,-3.10486012e-10,3.66425390,1.55663773,-2.84509855,7.47426486e-01,4.16806606e-05,5.72996340,-3.27776425,-1,-0.9999367071428663
6.12013851e+02,2.49999978,-3.05569458e-10,3.66453022,1.55392317,-2.84509855,7.47426486e-01,4.16806606e-05,5.73258450,-3.26991672,-1,-0.9999243130104197
6.41574763e+02,2.49999977,-3.00540007e-10,3.66481260,1.55112543,-2.84509855,7.47426486e-01,4.16806606e-05,5.73528632,-3.26182645,-1,-0.9999113278997144
6.72539541e+02,2.49999976,-2.95419010e-10,3.66513718,1.54824212,-2.84509855,7.47426486e-01,4.16806606e-05,5.73807062,-3.25349018,-1,-0.9998977261180678
7.04949015e+02,2.49999975,-2.90266236e-10,3.66548041,1.54527342,-2.84509855,7.47426486e-01,4.16806606e-05,5.74093777,-3.24490485,-1,-0.9998834897302394
7.38919071e+02,2.49999974,-2.85003869e-10,3.66579715,1.54221722,-2.84509855,7.47426486e-01,4.16806606e-05,5.74389039,-3.23606378,-1,-0.9998685678314216
7.74645093e+02,2.49999973,-2.79768466e-10,3.66611517,1.53906693,-2.84509855,7.47426486e-01,4.16806606e-05,5.74693440,-3.22694852,-1,-0.999852874596019
8.11998048e+02,2.49999972,-2.74473444e-10,3.66647376,1.53583140,-2.84509855,7.47426486e-01,4.16806606e-05,5.75006071,-3.21758677,-1,-0.9998364667038726
8.51027233e+02,2.49999971,-2.69188902e-10,3.66683078,1.53251146,-2.84509855,7.47426486e-01,4.16806606e-05,5.75326934,-3.20797814,-1,-0.9998193225004743
8.92161672e+02,2.49999970,-2.63746207e-10,3.66719144,1.52909007,-2.84509855,7.47426486e-01,4.16806606e-05,5.75657658,-3.19807512,-1,-0.9998012535300644
9.35097077e+02,2.49999969,-2.58285322e-10,3.66754501,1.52558623,-2.84509855,7.47426486e-01,4.16806606e-05,5.75996385,-3.18792807,-1,-0.999782393456089
9.80148960e+02,2.49999968,-2.52831939e-10,3.66790528,1.52198950,-2.84509855,7.47426486e-01,4.16806606e-05,5.76344119,-3.17751118,-1,-0.9997626036847774
1.02734272e+03,2.49999967,-2.47337025e-10,3.66830304,1.51830136,-2.84509855,7.47426486e-01,4.16806606e-05,5.76700707,-3.16682826,-1,-0.9997418730592067
1.07677498e+03,2.49999966,-2.41837813e-10,3.66869200,1.51452238,-2.84509855,7.47426486e-01,4.16806606e-05,5.77066159,-3.15587952,-1,-0.9997201591361548
1.12856186e+03,2.49999964,-2.36308223e-10,3.66911836,1.51065097,-2.84509854,7.47426486e-01,4.16806606e-05,5.77440544,-3.14466293,-1,-0.9996974109080254
1.18288163e+03,2.49999963,-2.30872064e-10,3.66952354,1.50668637,-2.84509854,7.47426486e-01,4.16806606e-05,5.77824041,-3.13317395,-1,-0.9996735500668261
1.23964811e+03,2.49999962,-2.25325086e-10,3.66993228,1.50263601,-2.84509854,7.47426486e-01,4.16806606e-05,5.78215934,-3.12143264,-1,-0.9996486144685215
1.29929548e+03,2.49999961,-2.19879522e-10,3.67040469,1.49848571,-2.84509854,7.47426485e-01,4.16806606e-05,5.78617473,-3.10940317,-1,-0.9996224133924947
1.36172975e+03,2.49999959,-2.14410765e-10,3.67083207,1.49424824,-2.84509854,7.47426485e-01,4.16806606e-05,5.79027575,-3.09711567,-1,-0.9995949881253798
1.42706912e+03,2.49999958,-2.08937522e-10,3.67126658,1.48992290,-2.84509854,7.47426485e-01,4.16806606e-05,5.79446269,-3.08457211,-1,-0.9995662867459073
1.49547679e+03,2.49999956,-2.03523057e-10,3.67172920,1.48550883,-2.84509854,7.47426485e-01,4.16806607e-05,5.79873552,-3.07176923,-1,-0.9995362375658263
1.56727727e+03,2.49999955,-1.98067474e-10,3.67217545,1.48100219,-2.84509853,7.47426485e-01,4.16806607e-05,5.80309907,-3.05869492,-1,-0.9995046980388491
1.64247991e+03,2.49999954,-1.92737640e-10,3.67265808,1.47640744,-2.84509853,7.47426485e-01,4.16806607e-05,5.80754818,-3.04536337,-1,-0.999471664057836
1.72121543e+03,2.49999952,-1.87443069e-10,3.67313575,1.47172611,-2.84509852,7.47426484e-01,4.16806607e-05,5.81208198,-3.03177850,-1,-0.9994370782019043
1.80371007e+03,2.49999951,-1.82190522e-10,3.67367595,1.46695546,-2.84509852,7.47426484e-01,4.16806608e-05,5.81670254,-3.01793189,-1,-0.9994008410914594
1.89009583e+03,2.49999949,-1.77069204e-10,3.67420034,1.46209808,-2.84509851,7.47426484e-01,4.16806608e-05,5.82140869,-3.00382709,-1,-0.9993628947433574
1.98056453e+03,2.49999947,-1.71941497e-10,3.67469657,1.45715881,-2.84509851,7.47426484e-01,4.16806609e-05,5.82619593,-2.98947856,-1,-0.9993231548975479
2.07531040e+03,2.49999946,-1.66847632e-10,3.67519899,1.45213746,-2.84509851,7.47426484e-01,4.16806609e-05,5.83106470,-2.97488572,-1,-0.9992815362353488
2.17454997e+03,2.49999944,-1.61838949e-10,3.67573858,1.44703240,-2.84509851,7.47426483e-01,4.16806609e-05,5.83601555,-2.96004620,-1,-0.9992379436424409
2.27844758e+03,2.49999943,-1.56906822e-10,3.67626692,1.44184784,-2.84509851,7.47426483e-01,4.16806610e-05,5.84104499,-2.94497079,-1,-0.9991923049298101
2.38730850e+03,2.49999941,-1.52042115e-10,3.67679139,1.43658424,-2.84509850,7.47426483e-01,4.16806611e-05,5.84615203,-2.92966565,-1,-0.999144486002651
2.50144852e+03,2.49999939,-1.47317283e-10,3.67740727,1.43123459,-2.84509849,7.47426482e-01,4.16806615e-05,5.85134223,-2.91411033,-1,-0.9990943481450771
2.62088218e+03,2.49999938,-1.42655283e-10,3.67795972,1.42581271,-2.84509849,7.47426482e-01,4.16806616e-05,5.85660382,-2.89834110,-1,-0.9990418849701573
2.74586215e+03,2.49999936,-1.38058118e-10,3.67850810,1.42031892,-2.84509849,7.47426482e-01,4.16806618e-05,5.86193568,-2.88235826,-1,-0.9989869854884904
2.87683186e+03,2.49999934,-1.33544082e-10,3.67906006,1.41475213,-2.84509848,7.47426482e-01,4.16806622e-05,5.86733949,-2.86615674,-1,-0.9989294549162471
3.01404597e+03,2.49999932,-1.29093432e-10,3.67962152,1.40911390,-2.84509848,7.47426482e-01,4.16806628e-05,5.87281394,-2.84974451,-1,-0.9988691813898861
3.15758570e+03,2.49999930,-1.24736667e-10,3.68018022,1.40340802,-2.84509848,7.47426482e-01,4.16806637e-05,5.87835606,-2.83312825,-1,-0.9988061292322035
3.30812917e+03,2.49999929,-1.20552153e-10,3.68083593,1.39763526,-2.84509848,7.47426482e-01,4.16806661e-05,5.88386706,-2.81648618,-1,-0.9987400005679756
3.46565966e+03,2.49999927,-1.16427662e-10,3.68141348,1.39179361,-2.84509848,7.47426482e-01,4.16806667e-05,5.88950813,-2.79953424,-1,-0.9986708027417341
3.63050996e+03,2.49999925,-1.12379101e-10,3.68198853,1.38588887,-2.84509847,7.47426482e-01,4.16806688e-05,5.89523766,-2.78234518,-1,-0.9985983895700664
3.80333147e+03,2.49999923,-1.08424577e-10,3.68259983,1.37991759,-2.84509847,7.47426481e-01,4.16806738e-05,5.90103998,-2.76494791,-1,-0.998522474914943
3.98410990e+03,2.49999921,-1.04585813e-10,3.68321255,1.37388760,-2.84509847,7.47426481e-01,4.16806767e-05,5.90690076,-2.74737278,-1,-0.9984430650534782
4.17360618e+03,2.49999919,-1.00868397e-10,3.68384173,1.36779288,-2.84509847,7.47426481e-01,4.16806821e-05,5.91282635,-2.72960363,-1,-0.9983598257348114
4.37184966e+03,2.49999917,-9.72225618e-11,3.68443623,1.36164451,-2.84509847,7.47426481e-01,4.16806911e-05,5.91880546,-2.71167046,-1,-0.9982727440664781
4.57951317e+03,2.49999915,-9.36644361e-11,3.68506082,1.35543853,-2.84509847,7.47426481e-01,4.16807033e-05,5.92484376,-2.69355901,-1,-0.9981815244969733
4.79695754e+03,2.49999913,-9.01967098e-11,3.68567009,1.34917682,-2.84509847,7.47426481e-01,4.16807192e-05,5.93093930,-2.67527838,-1,-0.998086008525859
5.02442091e+03,2.49999911,-8.68505951e-11,3.68627448,1.34286583,-2.84509847,7.47426481e-01,4.16807394e-05,5.93708422,-2.65685113,-1,-0.9979860915462726
5.26310019e+03,2.49999909,-8.36149704e-11,3.68700236,1.33649298,-2.84509847,7.47426481e-01,4.16807636e-05,5.94328919,-2.63824501,-1,-0.997881247796057
5.51271413e+03,2.49999907,-8.04758729e-11,3.68762652,1.33007499,-2.84509847,7.47426481e-01,4.16808031e-05,5.94953967,-2.61949676,-1,-0.9977716008188428
5.77391570e+03,2.49999905,-7.74516676e-11,3.68825283,1.32361034,-2.84509847,7.47426481e-01,4.16808529e-05,5.95583717,-2.60060746,-1,-0.9976568637869521
6.04757498e+03,2.49999903,-7.44672304e-11,3.68887857,1.31710184,-2.84509847,7.47426481e-01,4.16809159e-05,5.96217929,-2.58158543,-1,-0.9975366545036138
6.33414352e+03,2.49999901,-7.15962746e-11,3.68951701,1.31054821,-2.84509847,7.47426481e-01,4.16810003e-05,5.96856748,-2.56242610,-1,-0.9974107746181566
6.63401549e+03,2.49999899,-6.88094297e-11,3.69016532,1.30395171,-2.84509847,7.47426481e-01,4.16810802e-05,5.97499958,-2.54313602,-1,-0.9972790509850062
6.94801585e+03,2.49999897,-6.61096797e-11,3.69079191,1.29731516,-2.84509847,7.47426481e-01,4.16812592e-05,5.98147276,-2.52372273,-1,-0.9971411212270841
7.27706306e+03,2.49999895,-6.35016929e-11,3.69146627,1.29063399,-2.84509847,7.47426481e-01,4.16814047e-05,5.98799043,-2.50417384,-1,-0.9969965818959181
7.62137448e+03,2.49999893,-6.10053478e-11,3.69211177,1.28391868,-2.84509847,7.47426481e-01,4.16817036e-05,5.99454229,-2.48452119,-1,-0.9968453375125982
7.98188167e+03,2.49999890,-5.85745205e-11,3.69280320,1.27716447,-2.84509847,7.47426481e-01,4.16819995e-05,6.00113361,-2.46474536,-1,-0.9966869788742644
8.35915875e+03,2.49999888,-5.62409367e-11,3.69344650,1.27037486,-2.84509847,7.47426481e-01,4.16824697e-05,6.00776207,-2.44486053,-1,-0.9965212537893824
8.75443342e+03,2.49999886,-5.39694746e-11,3.69408368,1.26355522,-2.84509847,7.47426481e-01,4.16830481e-05,6.01442293,-2.42488172,-1,-0.9963476229707876
9.16818668e+03,2.49999884,-5.17818405e-11,3.69472220,1.25670460,-2.84509847,7.47426480e-01,4.16838090e-05,6.02111592,-2.40480867,-1,-0.996165875131418
9.60161116e+03,2.49999882,-4.96953945e-11,3.69544070,1.24981622,-2.84509847,7.47426480e-01,4.16848092e-05,6.02784644,-2.38462215,-1,-0.9959754863891759
1.00550380e+04,2.49999880,-4.76625848e-11,3.69608185,1.24290295,-2.84509847,7.47426480e-01,4.16861308e-05,6.03460234,-2.36435704,-1,-0.9957763112854384
1.05301039e+04,2.49999877,-4.57288557e-11,3.69681322,1.23595562,-2.84509847,7.47426479e-01,4.16878654e-05,6.04139187,-2.34398822,-1,-0.9955676308731481
1.10273168e+04,2.49999875,-4.38459728e-11,3.69749601,1.22898529,-2.84509847,7.47426478e-01,4.16901632e-05,6.04820609,-2.32354748,-1,-0.9953492220314106
1.15477411e+04,2.49999873,-4.20465899e-11,3.69814647,1.22199416,-2.84509847,7.47426477e-01,4.16931891e-05,6.05504269,-2.30303922,-1,-0.9951206172052384
1.20928400e+04,2.49999871,-4.02996415e-11,3.69879528,1.21498308,-2.84509847,7.47426476e-01,4.16971895e-05,6.06190123,-2.28246652,-1,-0.9948811736602672
1.26635092e+04,2.49999868,-3.86191570e-11,3.69944157,1.20795520,-2.84509847,7.47426474e-01,4.17024603e-05,6.06877796,-2.26183786,-1,-0.9946304979457246
1.32610470e+04,2.49999866,-3.70033123e-11,3.70010103,1.20091165,-2.84509847,7.47426472e-01,4.17094007e-05,6.07567096,-2.24115832,-1,-0.9943680197622494
1.38867344e+04,2.49999864,-3.54559820e-11,3.70076715,1.19385496,-2.84509847,7.47426470e-01,4.17165015e-05,6.08257845,-2.22043299,-1,-0.9940931764097866
1.45417715e+04,2.49999862,-3.39729379e-11,3.70142301,1.18678919,-2.84509847,7.47426465e-01,4.17305588e-05,6.08949662,-2.19967773,-1,-0.9938054407249197
1.52276730e+04,2.49999859,-3.25496137e-11,3.70207691,1.17971926,-2.84509847,7.47426460e-01,4.17463615e-05,6.09642091,-2.17890635,-1,-0.9935041473510731
1.59459292e+04,2.49999857,-3.11831143e-11,3.70273116,1.17265142,-2.84509847,7.47426453e-01,4.17656452e-05,6.10334534,-2.15813707,-1,-0.9931886416497672
1.66981609e+04,2.49999855,-2.98851871e-11,3.70339308,1.16559174,-2.84509847,7.47426444e-01,4.17943305e-05,6.11026383,-2.13738437,-1,-0.992858211658278
1.74858019e+04,2.49999853,-2.86324129e-11,3.70403255,1.15855188,-2.84509847,7.47426432e-01,4.18293989e-05,6.11716479,-2.11668206,-1,-0.9925122275566688
1.83109306e+04,2.49999850,-2.74356856e-11,3.70468757,1.15153631,-2.84509847,7.47426416e-01,4.18765080e-05,6.12404309,-2.09604751,-1,-0.9921497763739835
1.91749751e+04,2.49999848,-2.63025672e-11,3.70530732,1.14456530,-2.84509847,7.47426396e-01,4.19371765e-05,6.13087870,-2.07554231,-1,-0.9917702307941026
2.00800462e+04,2.49999846,-2.52149354e-11,3.70591612,1.13764952,-2.84509847,7.47426370e-01,4.20159635e-05,6.13766118,-2.05519566,-1,-0.9913726636138442
2.10290855e+04,2.49999843,-2.41815560e-11,3.70660681,1.13080390,-2.84509847,7.47426341e-01,4.21030055e-05,6.14437600,-2.03505118,-1,-0.9909557826876324
2.20234322e+04,2.49999841,-2.32231039e-11,3.70721316,1.12405666,-2.84509847,7.47426292e-01,4.22495759e-05,6.15099590,-2.01519074,-1,-0.990518999750117
2.30658518e+04,2.49999839,-2.23059901e-11,3.70780008,1.11743395,-2.84509847,7.47426236e-01,4.24184162e-05,6.15749530,-1.99569137,-1,-0.9900611000105074
2.41587992e+04,2.49999836,-2.14433805e-11,3.70837308,1.11096537,-2.84509847,7.47426164e-01,4.26333010e-05,6.16384465,-1.97664380,-1,-0.9895810051141077
2.53047614e+04,2.49999834,-2.06348351e-11,3.70893757,1.10468053,-2.84509847,7.47426074e-01,4.29040192e-05,6.17001477,-1.95813335,-1,-0.9890776226057757
2.65065223e+04,2.49999831,-1.98895686e-11,3.70949572,1.09861175,-2.84509847,7.47425961e-01,4.32415336e-05,6.17597398,-1.94025593,-1,-0.988549729612222
2.77688716e+04,2.49999829,-1.91962987e-11,3.70999785,1.09280843,-2.84509847,7.47425821e-01,4.36606976e-05,6.18167374,-1.92315922,-1,-0.9879952221799305
2.90920429e+04,2.49999827,-1.85599337e-11,3.71052755,1.08727490,-2.84509847,7.47425653e-01,4.41660981e-05,6.18710918,-1.90685470,-1,-0.9874139976963071
3.04828918e+04,2.49999824,-1.79774053e-11,3.71098923,1.08205763,-2.84509847,7.47425448e-01,4.47805198e-05,6.19223502,-1.89147778,-1,-0.9868030447277076
3.19415957e+04,2.49999821,-1.74424491e-11,3.71141197,1.07715439,-2.84509847,7.47425208e-01,4.55010885e-05,6.19705276,-1.87702340,-1,-0.9861622853483007
3.34723218e+04,2.49999819,-1.69604546e-11,3.71180996,1.07256182,-2.84509847,7.47424930e-01,4.63357305e-05,6.20156606,-1.86348138,-1,-0.9854898890478057
3.50790698e+04,2.49999816,-1.65188866e-11,3.71218479,1.06825828,-2.84509847,7.47424613e-01,4.72857996e-05,6.20579593,-1.85078946,-1,-0.9847840988930366
3.67651990e+04,2.49999813,-1.61118842e-11,3.71253164,1.06420380,-2.84509847,7.47424259e-01,4.83467770e-05,6.20978179,-1.83883106,-1,-0.9840434392569092
3.85338696e+04,2.49999811,-1.57387913e-11,3.71286030,1.06033883,-2.84509847,7.47423872e-01,4.95096327e-05,6.21358199,-1.82743027,-1,-0.9832665219702472
4.03863374e+04,2.49999808,-1.53852951e-11,3.71317739,1.05659174,-2.84509847,7.47423455e-01,5.07597655e-05,6.21726686,-1.81637459,-1,-0.9824527954025051
4.23308180e+04,2.49999805,-1.50447691e-11,3.71353965,1.05288484,-2.84509847,7.47423022e-01,5.20602327e-05,6.22091260,-1.80543887,-1,-0.98159865071795
4.43692202e+04,2.49999802,-1.47150435e-11,3.71386990,1.04912747,-2.84509847,7.47422553e-01,5.34651926e-05,6.22460858,-1.79435146,-1,-0.9807032494451808
4.64995173e+04,2.49999799,-1.43766359e-11,3.71420176,1.04524214,-2.84509847,7.47422083e-01,5.48760425e-05,6.22843066,-1.78288600,-1,-0.9797674818450886
4.87348048e+04,2.49999796,-1.40253589e-11,3.71455338,1.04111586,-2.84509847,7.47421610e-01,5.62953645e-05,6.23248998,-1.77071008,-1,-0.9787855955066097
5.10727692e+04,2.49999792,-1.36537907e-11,3.71493657,1.03665731,-2.84509847,7.47421144e-01,5.76932247e-05,6.23687642,-1.75755277,-1,-0.9777586066721936
5.35157106e+04,2.49999789,-1.32572045e-11,3.71536123,1.03176662,-2.84509847,7.47420695e-01,5.90386128e-05,6.24168819,-1.74311724,-1,-0.9766855049855584
5.60673531e+04,2.49999786,-1.28265567e-11,3.71581986,1.02632937,-2.84509847,7.47420277e-01,6.02936316e-05,6.24703831,-1.72706601,-1,-0.9755646545752948
5.87283829e+04,2.49999783,-1.23566741e-11,3.71633330,1.02024170,-2.84509847,7.47419902e-01,6.14184063e-05,6.25302948,-1.70909142,-1,-0.974395754016908
6.15015152e+04,2.49999779,-1.18476635e-11,3.71691801,1.01339825,-2.84509847,7.47419586e-01,6.23678083e-05,6.25976623,-1.68888100,-1,-0.9731776106146993
6.43849737e+04,2.49999776,-1.13036935e-11,3.71756452,1.00574585,-2.84509847,7.47419339e-01,6.31072023e-05,6.26730096,-1.66627699,-1,-0.9719110046372934
6.73813712e+04,2.49999773,-1.07293865e-11,3.71827636,9.97299973e-01,-2.84509847,7.47419169e-01,6.36169832e-05,6.27561794,-1.64132506,-1,-0.9705947883698548
7.04955535e+04,2.49999769,-1.01438767e-11,3.71905983,9.88193392e-01,-2.84509847,7.47419070e-01,6.39139594e-05,6.28458675,-1.61441526,-1,-0.9692268332160311
7.37358102e+04,2.49999766,-9.56392388e-12,3.71984158,9.78659441e-01,-2.84509847,7.47419025e-01,6.40487144e-05,6.29385054,-1.58607280,-1,-0.9678034978343879
7.71161702e+04,2.49999763,-9.00872194e-12,3.72065319,9.68988321e-01,-2.84509847,7.47419012e-01,6.40877858e-05,6.30179970,-1.55500815,-1,-0.966318619802752
8.06519757e+04,2.49999760,-8.49084533e-12,3.72143710,9.59381217e-01,-2.84509847,7.47419009e-01,6.40989373e-05,6.31005000,-1.52392473,-1,-0.964765459810595
8.43583265e+04,2.49999757,-8.01190544e-12,3.72226303,9.49881234e-01,-2.84509847,7.47419008e-01,6.41022772e-05,6.31818146,-1.49336419,-1,-0.9631373850255259
8.82379849e+04,2.49999754,-7.56362227e-12,3.72304130,9.40511794e-01,-2.84509847,7.47419007e-01,6.41031909e-05,6.32624431,-1.46305998,-1,-0.961433182062406
9.23012029e+04,2.49999751,-7.14522548e-12,3.72380894,9.31267483e-01,-2.84509847,7.47419007e-01,6.41034055e-05,6.33422735,-1.43295360,-1,-0.9596483475637291
9.65549618e+04,2.49999748,-6.75597565e-12,3.72454298,9.22148172e-01,-2.84509847,7.47419007e-01,6.41034476e-05,6.34210949,-1.40298245,-1,-0.9577798148800841
1.01011358e+05,2.49999745,-6.39084853e-12,3.72528574,9.13145678e-01,-2.84509847,7.47419007e-01,6.41034544e-05,6.34989428,-1.37310542,-1,-0.9558222704713094
1.05679496e+05,2.49999742,-6.05161678e-12,3.72601671,9.04260751e-01,-2.84509847,7.47419008e-01,6.41034553e-05,6.35758608,-1.34331900,-1,-0.9537717150379103
1.10567207e+05,2.49999739,-5.73287182e-12,3.72672524,8.95494299e-01,-2.84509847,7.47419008e-01,6.41034554e-05,6.36518480,-1.31360248,-1,-0.9516247085980976
1.15684629e+05,2.49999737,-5.43482717e-12,3.72741850,8.86843140e-01,-2.84509847,7.47419008e-01,6.41034554e-05,6.37269589,-1.28393113,-1,-0.9493767978707163
1.21045768e+05,2.49999734,-5.15676239e-12,3.72813138,8.78299674e-01,-2.84509848,7.47419008e-01,6.41034553e-05,6.38013144,-1.25426241,-1,-0.9470218304927901
1.26662645e+05,2.49999731,-4.89538219e-12,3.72882900,8.69868685e-01,-2.84509848,7.47419008e-01,6.41034553e-05,6.38749246,-1.22459138,-1,-0.9445545260448315
1.32541773e+05,2.49999728,-4.65081045e-12,3.72950229,8.61548430e-01,-2.84509848,7.47419008e-01,6.41034553e-05,6.39478711,-1.19490311,-1,-0.9419720235858107
1.38700664e+05,2.49999725,-4.42154885e-12,3.73018443,8.53336191e-01,-2.84509848,7.47419008e-01,6.41034553e-05,6.40202480,-1.16516344,-1,-0.9392666306853088
1.45153194e+05,2.49999723,-4.20701659e-12,3.73086522,8.45231828e-01,-2.84509848,7.47419009e-01,6.41034552e-05,6.40921282,-1.13535624,-1,-0.936432252084961
1.51908075e+05,2.49999720,-4.00511321e-12,3.73154538,8.37234501e-01,-2.84509848,7.47419009e-01,6.41034552e-05,6.41635850,-1.10546727,-1,-0.9334650608972723
1.58987385e+05,2.49999717,-3.81617012e-12,3.73220888,8.29350224e-01,-2.84509848,7.47419009e-01,6.41034551e-05,6.42346734,-1.07547817,-1,-0.9303553590021664
1.66398542e+05,2.49999714,-3.63836334e-12,3.73289005,8.21573261e-01,-2.84509848,7.47419010e-01,6.41034550e-05,6.43054925,-1.04536720,-1,-0.9270998879226644
1.74167984e+05,2.49999712,-3.47245001e-12,3.73357216,8.13909542e-01,-2.84509848,7.47419010e-01,6.41034550e-05,6.43761342,-1.01510853,-1,-0.9236870343378777
