star_age,star_mass,star_mdot,log_Teff,log_R,log_surf_z,surface_h1,surface_he3,log_center_T,log_center_Rho,phase,x
9.26548503e+01,2.39999547e+01,-4.19407443e-07,3.65048920,2.45247139,-2.84509853,7.47426485e-01,4.16806607e-05,5.71291278,-4.90854479,-1,-1.0
9.62657445e+01,2.39999532e+01,-4.14877758e-07,3.65066424,2.45087671,-2.84509853,7.47426485e-01,4.16806607e-05,5.71456824,-4.90214788,-1,-0.9999061984502138
9.99970447e+01,2.39999517e+01,-4.10287532e-07,3.65084207,2.44924804,-2.84509854,7.47426485e-01,4.16806606e-05,5.71626466,-4.89558395,-1,-0.9998092690687111
1.03859587e+02,2.39999501e+01,-4.05645093e-07,3.65102376,2.44758317,-2.84509854,7.47426485e-01,4.16806606e-05,5.71800525,-4.88883846,-1,-0.9997089303620675
1.07862519e+02,2.39999485e+01,-4.00965180e-07,3.65121024,2.44588068,-2.84509854,7.47426486e-01,4.16806606e-05,5.71979247,-4.88190004,-1,-0.999604944699655
1.12037737e+02,2.39999468e+01,-3.96269935e-07,3.65140127,2.44413390,-2.84509855,7.47426486e-01,4.16806606e-05,5.72163593,-4.87473123,-1,-0.999496483499353
1.16383615e+02,2.39999451e+01,-3.91499472e-07,3.65159656,2.44234543,-2.84509855,7.47426486e-01,4.16806606e-05,5.72353341,-4.86733756,-1,-0.9993835890003723
1.20889390e+02,2.39999434e+01,-3.86670521e-07,3.65179692,2.44051910,-2.84509855,7.47426486e-01,4.16806606e-05,5.72548106,-4.85973442,-1,-0.9992665407971909
1.25563610e+02,2.39999416e+01,-3.81790853e-07,3.65200192,2.43865441,-2.84509855,7.47426486e-01,4.16806606e-05,5.72748059,-4.85191475,-1,-0.9991451168352146
1.30414943e+02,2.39999398e+01,-3.76860656e-07,3.65221134,2.43675107,-2.84509856,7.47426486e-01,4.16806605e-05,5.72953091,-4.84387787,-1,-0.9990190919425636
1.35452692e+02,2.39999379e+01,-3.71898133e-07,3.65242524,2.43480894,-2.84509856,7.47426486e-01,4.16806605e-05,5.73163440,-4.83561440,-1,-0.998888224451726
1.40684195e+02,2.39999360e+01,-3.66938188e-07,3.65264309,2.43282849,-2.84509856,7.47426487e-01,4.16806605e-05,5.73379926,-4.82710336,-1,-0.9987523237407301
1.46117689e+02,2.39999340e+01,-3.61936490e-07,3.65286558,2.43080987,-2.84509856,7.47426487e-01,4.16806605e-05,5.73602222,-4.81834942,-1,-0.9986111758339445
1.51762134e+02,2.39999320e+01,-3.56901915e-07,3.65309354,2.42875359,-2.84509857,7.47426487e-01,4.16806605e-05,5.73830477,-4.80934659,-1,-0.9984645479740967
1.57624452e+02,2.39999300e+01,-3.51902597e-07,3.65332579,2.42666086,-2.84509857,7.47426487e-01,4.16806605e-05,5.74064758,-4.80009064,-1,-0.9983122603458024
1.63713101e+02,2.39999278e+01,-3.46859295e-07,3.65356188,2.42453229,-2.84509857,7.47426487e-01,4.16806605e-05,5.74305208,-4.79057609,-1,-0.9981540932324309
1.70037629e+02,2.39999257e+01,-3.41759789e-07,3.65380468,2.42236853,-2.84509857,7.47426487e-01,4.16806605e-05,5.74551994,-4.78079248,-1,-0.9979897986020132
1.76605940e+02,2.39999235e+01,-3.36700974e-07,3.65405093,2.42017150,-2.84509857,7.47426487e-01,4.16806604e-05,5.74805220,-4.77073998,-1,-0.997819171129384
1.83425466e+02,2.39999212e+01,-3.31661648e-07,3.65430161,2.41794266,-2.84509858,7.47426488e-01,4.16806604e-05,5.75064916,-4.76041380,-1,-0.997642017750698
1.90505257e+02,2.39999189e+01,-3.26608421e-07,3.65455664,2.41568325,-2.84509858,7.47426488e-01,4.16806604e-05,5.75331254,-4.74980858,-1,-0.9974581033707192
1.97854499e+02,2.39999165e+01,-3.21611256e-07,3.65481580,2.41339536,-2.84509858,7.47426488e-01,4.16806604e-05,5.75604401,-4.73891814,-1,-0.997267189361288
2.05481489e+02,2.39999141e+01,-3.16643683e-07,3.65508034,2.41108114,-2.84509859,7.47426489e-01,4.16806603e-05,5.75884364,-4.72774084,-1,-0.9970690601881309
2.13394574e+02,2.39999116e+01,-3.11645859e-07,3.65534929,2.40874218,-2.84509860,7.47426489e-01,4.16806603e-05,5.76171229,-4.71627342,-1,-0.9968634990181054
2.21625472e+02,2.39999091e+01,-3.06708651e-07,3.65562167,2.40637972,-2.84509861,7.47426490e-01,4.16806602e-05,5.76465584,-4.70448658,-1,-0.9966496819008573
2.30183813e+02,2.39999065e+01,-3.01858948e-07,3.65589881,2.40399733,-2.84509862,7.47426490e-01,4.16806602e-05,5.76767597,-4.69238107,-1,-0.996427358674273
2.39061747e+02,2.39999039e+01,-2.97007470e-07,3.65617899,2.40159878,-2.84509863,7.47426491e-01,4.16806601e-05,5.77077014,-4.67996665,-1,-0.9961967332607398
2.48269587e+02,2.39999012e+01,-2.92212928e-07,3.65646491,2.39918686,-2.84509863,7.47426491e-01,4.16806601e-05,5.77393940,-4.66723954,-1,-0.9959575377555978
2.57817194e+02,2.39998984e+01,-2.87510206e-07,3.65675222,2.39676502,-2.84509864,7.47426491e-01,4.16806601e-05,5.77718465,-4.65419326,-1,-0.9957095159959601
2.67766289e+02,2.39998956e+01,-2.82852787e-07,3.65704810,2.39433600,-2.84509864,7.47426491e-01,4.16806601e-05,5.78051899,-4.64078110,-1,-0.9954510646323145
2.78090473e+02,2.39998927e+01,-2.78301004e-07,3.65734517,2.39190534,-2.84509864,7.47426491e-01,4.16806601e-05,5.78393523,-4.62703122,-1,-0.9951828694413621
2.88790952e+02,2.39998898e+01,-2.73783620e-07,3.65764712,2.38947680,-2.84509864,7.47426492e-01,4.16806600e-05,5.78743303,-4.61294793,-1,-0.9949048990943897
2.99899320e+02,2.39998868e+01,-2.69398636e-07,3.65794818,2.38705657,-2.84509865,7.47426492e-01,4.16806600e-05,5.79101786,-4.59850999,-1,-0.9946163328622372
3.11467274e+02,2.39998837e+01,-2.65124221e-07,3.65825732,2.38465051,-2.84509865,7.47426492e-01,4.16806600e-05,5.79470043,-4.58367533,-1,-0.9943158277925911
3.23453022e+02,2.39998806e+01,-2.60976042e-07,3.65856910,2.38226272,-2.84509865,7.47426492e-01,4.16806600e-05,5.79847204,-4.56848924,-1,-0.9940044695318737
3.35882427e+02,2.39998774e+01,-2.56925974e-07,3.65888305,2.37989999,-2.84509865,7.47426492e-01,4.16806600e-05,5.80233845,-4.55293543,-1,-0.9936815862272561
3.48835775e+02,2.39998741e+01,-2.52995430e-07,3.65919976,2.37757332,-2.84509865,7.47426492e-01,4.16806600e-05,5.80631670,-4.53695214,-1,-0.9933450922592745
3.62252334e+02,2.39998708e+01,-2.49255770e-07,3.65952030,2.37528563,-2.84509866,7.47426492e-01,4.16806600e-05,5.81039300,-4.52059430,-1,-0.9929965652858179
3.76177541e+02,2.39998673e+01,-2.45658545e-07,3.65984338,2.37304764,-2.84509866,7.47426493e-01,4.16806599e-05,5.81457697,-4.50383426,-1,-0.9926348249729354
3.90674519e+02,2.39998638e+01,-2.42215580e-07,3.66016870,2.37087456,-2.84509866,7.47426493e-01,4.16806599e-05,5.81888275,-4.48662193,-1,-0.9922582315508361
4.05689275e+02,2.39998602e+01,-2.38951421e-07,3.66049551,2.36876857,-2.84509866,7.47426493e-01,4.16806599e-05,5.82329915,-4.46900785,-1,-0.9918681876158846
4.21293118e+02,2.39998565e+01,-2.35902267e-07,3.66082555,2.36674885,-2.84509867,7.47426493e-01,4.16806599e-05,5.82784232,-4.45094100,-1,-0.9914628407475049
4.37518078e+02,2.39998528e+01,-2.33078148e-07,3.66115668,2.36483358,-2.84509867,7.47426493e-01,4.16806599e-05,5.83251463,-4.43241254,-1,-0.9910413588904017
4.54324988e+02,2.39998489e+01,-2.30455823e-07,3.66148958,2.36302445,-2.84509867,7.47426493e-01,4.16806599e-05,5.83731385,-4.41344326,-1,-0.99060475950039
4.71798986e+02,2.39998449e+01,-2.28066399e-07,3.66182426,2.36134802,-2.84509868,7.47426494e-01,4.16806598e-05,5.84226542,-4.39395244,-1,-0.9901508309157859
4.89959819e+02,2.39998408e+01,-2.26005930e-07,3.66215983,2.35982717,-2.84509868,7.47426494e-01,4.16806598e-05,5.84737113,-4.37394200,-1,-0.9896790601613815
5.08771115e+02,2.39998366e+01,-2.24239109e-07,3.66249627,2.35846950,-2.84509868,7.47426494e-01,4.16806598e-05,5.85262533,-4.35344596,-1,-0.9891903920862308
5.28327142e+02,2.39998322e+01,-2.22811820e-07,3.66283319,2.35731804,-2.84509869,7.47426494e-01,4.16806598e-05,5.85805327,-4.33239348,-1,-0.9886823778552238
5.48654807e+02,2.39998277e+01,-2.21771975e-07,3.66316786,2.35640470,-2.84509869,7.47426494e-01,4.16806598e-05,5.86366488,-4.31076196,-1,-0.9881543184951532
5.69716690e+02,2.39998230e+01,-2.21120224e-07,3.66350539,2.35574139,-2.84509869,7.47426495e-01,4.16806598e-05,5.86945724,-4.28857648,-1,-0.9876071860793612
5.91534545e+02,2.39998182e+01,-2.20940917e-07,3.66384452,2.35536224,-2.84509869,7.47426495e-01,4.16806597e-05,5.87544132,-4.26581747,-1,-0.9870404154960496
6.14257553e+02,2.39998132e+01,-2.21389715e-07,3.66417855,2.35536601,-2.84509870,7.47426495e-01,4.16806597e-05,5.88166145,-4.24236607,-1,-0.9864501314145596
6.37788534e+02,2.39998080e+01,-2.22471009e-07,3.66451179,2.35575485,-2.84509870,7.47426495e-01,4.16806597e-05,5.88809867,-4.21829131,-1,-0.9858388583161151
6.62118881e+02,2.39998025e+01,-2.24287366e-07,3.66484365,2.35656991,-2.84509870,7.47426495e-01,4.16806597e-05,5.89475955,-4.19358845,-1,-0.9852068197879754
6.87403176e+02,2.39997968e+01,-2.27183074e-07,3.66517124,2.35796634,-2.84509870,7.47426495e-01,4.16806597e-05,5.90167588,-4.16817744,-1,-0.9845500001956841
7.13488435e+02,2.39997908e+01,-2.31183879e-07,3.66549653,2.35992611,-2.84509870,7.47426495e-01,4.16806597e-05,5.90886509,-4.14206610,-1,-0.9838723736618536
7.40483177e+02,2.39997844e+01,-2.36775332e-07,3.66581737,2.36263402,-2.84509870,7.47426495e-01,4.16806597e-05,5.91635208,-4.11519276,-1,-0.9831711211478147
7.68282187e+02,2.39997777e+01,-2.44124888e-07,3.66613598,2.36613495,-2.84509870,7.47426495e-01,4.16806597e-05,5.92412266,-4.08762708,-1,-0.9824489758629925
7.96854752e+02,2.39997705e+01,-2.53670000e-07,3.66645326,2.37056489,-2.84509869,7.47426495e-01,4.16806597e-05,5.93219090,-4.05937696,-1,-0.9817067356504804
8.26105291e+02,2.39997628e+01,-2.65848835e-07,3.66676857,2.37602655,-2.84509869,7.47426495e-01,4.16806597e-05,5.94055119,-4.03050094,-1,-0.9809468834536805
8.55923768e+02,2.39997546e+01,-2.81427424e-07,3.66708662,2.38269416,-2.84509868,7.47426494e-01,4.16806598e-05,5.94920143,-4.00105018,-1,-0.9801722777189393
8.86090865e+02,2.39997457e+01,-3.01051572e-07,3.66742676,2.39060950,-2.84509867,7.47426494e-01,4.16806598e-05,5.95810152,-3.97117988,-1,-0.9793886157520086
9.16372938e+02,2.39997361e+01,-3.25690049e-07,3.66780138,2.39985526,-2.84509866,7.47426493e-01,4.16806599e-05,5.96721892,-3.94106897,-1,-0.9786019670105033
9.46420418e+02,2.39997258e+01,-3.56687895e-07,3.66823060,2.41053842,-2.84509865,7.47426492e-01,4.16806600e-05,5.97647846,-3.91099101,-1,-0.9778214123791409
9.75357451e+02,2.39997148e+01,-3.96172216e-07,3.66883758,2.42286213,-2.84509863,7.47426491e-01,4.16806601e-05,5.98563526,-3.88175032,-1,-0.9770697042450133
1.00198754e+03,2.39997034e+01,-4.48965932e-07,3.66991448,2.43655783,-2.84509862,7.47426490e-01,4.16806602e-05,5.99433245,-3.85445404,-1,-0.9763779244584041
1.02871959e+03,2.39996904e+01,-5.11206335e-07,3.67164012,2.44909367,-2.84509860,7.47426489e-01,4.16806603e-05,6.00336032,-3.82659057,-1,-0.9756834959927453
1.05896387e+03,2.39996738e+01,-5.68969031e-07,3.67381630,2.45844355,-2.84509858,7.47426488e-01,4.16806604e-05,6.01386677,-3.79470558,-1,-0.9748978290141427
1.09153639e+03,2.39996542e+01,-6.22988188e-07,3.67644810,2.46526187,-2.84509857,7.47426487e-01,4.16806605e-05,6.02542155,-3.76012647,-1,-0.9740516804738609
1.12522294e+03,2.39996322e+01,-6.76374071e-07,3.67967628,2.47009546,-2.84509856,7.47426486e-01,4.16806605e-05,6.03757534,-3.72417668,-1,-0.9731765923594127
1.15934171e+03,2.39996080e+01,-7.28240002e-07,3.68373960,2.47264476,-2.84509855,7.47426486e-01,4.16806606e-05,6.05003927,-3.68769599,-1,-0.972290276304293
1.19348160e+03,2.39995822e+01,-7.77344528e-07,3.68866064,2.47289353,-2.84509854,7.47426486e-01,4.16806606e-05,6.06266064,-3.65109742,-1,-0.9714034116070304
1.22765026e+03,2.39995547e+01,-8.23878642e-07,3.69422524,2.47136250,-2.84509854,7.47426485e-01,4.16806606e-05,6.07539781,-3.61450380,-1,-0.9705157995407123
1.26196217e+03,2.39995256e+01,-8.68305367e-07,3.70025192,2.46848951,-2.84509853,7.47426485e-01,4.16806607e-05,6.08829744,-3.57772071,-1,-0.969624466215542
1.29645535e+03,2.39994948e+01,-9.10799631e-07,3.70666241,2.46445810,-2.84509853,7.47426485e-01,4.16806607e-05,6.10133839,-3.54080205,-1,-0.9687284239717525
1.33118561e+03,2.39994624e+01,-9.50894529e-07,3.71340808,2.45934761,-2.84509853,7.47426485e-01,4.16806607e-05,6.11449739,-3.50385991,-1,-0.9678262230120906
1.36615042e+03,2.39994284e+01,-9.88072109e-07,3.72046106,2.45318855,-2.84509852,7.47426485e-01,4.16806607e-05,6.12777687,-3.46684666,-1,-0.966917929059313
1.40132251e+03,2.39993930e+01,-1.02164453e-06,3.72780291,2.44599957,-2.84509852,7.47426484e-01,4.16806607e-05,6.14116667,-3.42973611,-1,-0.9660042505164137
1.43669681e+03,2.39993562e+01,-1.05129231e-06,3.73541261,2.43781014,-2.84509852,7.47426484e-01,4.16806607e-05,6.15462562,-3.39264737,-1,-0.9650853190886798
1.47232656e+03,2.39993182e+01,-1.07618096e-06,3.74327039,2.42860986,-2.84509852,7.47426484e-01,4.16806607e-05,6.16809233,-3.35576281,-1,-0.9641597517407097
1.50817945e+03,2.39992793e+01,-1.09581528e-06,3.75136136,2.41840748,-2.84509851,7.47426484e-01,4.16806607e-05,6.18156730,-3.31898865,-1,-0.9632283878014632
1.54429857e+03,2.39992394e+01,-1.10989060e-06,3.75966225,2.40723061,-2.84509852,7.47426485e-01,4.16806606e-05,6.19500715,-3.28245681,-1,-0.9622901079058869
1.58071115e+03,2.39991988e+01,-1.11809090e-06,3.76815125,2.39510938,-2.84509852,7.47426485e-01,4.16806606e-05,6.20840615,-3.24616186,-1,-0.9613442046900812
1.61742808e+03,2.39991577e+01,-1.12063133e-06,3.77680473,2.38211553,-2.84509854,7.47426487e-01,4.16806605e-05,6.22176045,-3.21007372,-1,-0.9603903952604416
1.65450628e+03,2.39991162e+01,-1.11756848e-06,3.78559996,2.36829599,-2.84509856,7.47426489e-01,4.16806603e-05,6.23505538,-3.17423023,-1,-0.9594272009848289
1.69200447e+03,2.39990744e+01,-1.10932894e-06,3.79451356,2.35372604,-2.84509856,7.47426489e-01,4.16806603e-05,6.24827061,-3.13867087,-1,-0.9584530964718313
1.73000142e+03,2.39990325e+01,-1.09632699e-06,3.80352242,2.33846828,-2.84509859,7.47426491e-01,4.16806601e-05,6.26141049,-3.10337797,-1,-0.9574660354836836
1.76857733e+03,2.39989906e+01,-1.07913219e-06,3.81260342,2.32261578,-2.84509862,7.47426494e-01,4.16806598e-05,6.27448887,-3.06830684,-1,-0.9564639346349761
1.80782047e+03,2.39989487e+01,-1.05855728e-06,3.82173692,2.30624822,-2.84509862,7.47426492e-01,4.16806600e-05,6.28751139,-3.03344451,-1,-0.9554445009028893
1.84781553e+03,2.39989069e+01,-1.03508249e-06,3.83090664,2.28943727,-2.84509851,7.47426488e-01,4.16806604e-05,6.30047994,-2.99879419,-1,-0.9544055342636032
1.88866620e+03,2.39988652e+01,-1.00933853e-06,3.84009650,2.27225272,-2.84509852,7.47426488e-01,4.16806603e-05,6.31340180,-2.96434992,-1,-0.9533443411231881
1.93045548e+03,2.39988236e+01,-9.81818070e-07,3.84929483,2.25475721,-2.84509851,7.47426489e-01,4.16806603e-05,6.32628719,-2.93010374,-1,-0.9522587653595865
1.97329105e+03,2.39987823e+01,-9.52816226e-07,3.85849090,2.23698070,-2.84509847,7.47426489e-01,4.16806602e-05,6.33912052,-2.89615527,-1,-0.951146009729146
2.01723150e+03,2.39987412e+01,-9.22665056e-07,3.86767976,2.21895496,-2.84509845,7.47426490e-01,4.16806602e-05,6.35190054,-2.86254593,-1,-0.9500045522175128
2.06234561e+03,2.39987003e+01,-8.91694435e-07,3.87685600,2.20070527,-2.84509845,7.47426491e-01,4.16806601e-05,6.36461921,-2.82932449,-1,-0.9488326061008903
2.10877785e+03,2.39986598e+01,-8.59974943e-07,3.88600865,2.18223419,-2.84509849,7.47426492e-01,4.16806599e-05,6.37724050,-2.79660642,-1,-0.9476264184280294
2.15662726e+03,2.39986195e+01,-8.27655055e-07,3.89512803,2.16356278,-2.84509850,7.47426493e-01,4.16806598e-05,6.38973746,-2.76436143,-1,-0.9463834163997907
2.20606226e+03,2.39985796e+01,-7.94883097e-07,3.90419919,2.14470797,-2.84509851,7.47426493e-01,4.16806598e-05,6.40205536,-2.73253139,-1,-0.9450992249068136
2.25725401e+03,2.39985399e+01,-7.61818378e-07,3.91320313,2.12570263,-2.84509851,7.47426491e-01,4.16806600e-05,6.41413504,-2.70092651,-1,-0.9437693976617318
2.31038976e+03,2.39985004e+01,-7.28669542e-07,3.92211926,2.10658946,-2.84509852,7.47426492e-01,4.16806600e-05,6.42592341,-2.66926750,-1,-0.942389070401229
2.36563447e+03,2.39984612e+01,-6.95704589e-07,3.93092965,2.08742099,-2.84509853,7.47426492e-01,4.16806599e-05,6.43740677,-2.63724830,-1,-0.9409539578976588
2.42312097e+03,2.39984223e+01,-6.63228367e-07,3.93962189,2.06825412,-2.84509853,7.47426493e-01,4.16806598e-05,6.44864412,-2.60462080,-1,-0.939460609576408
2.48293205e+03,2.39983838e+01,-6.31590987e-07,3.94819259,2.04914926,-2.84509855,7.47426495e-01,4.16806596e-05,6.45976689,-2.57126862,-1,-0.9379068747706676
2.54521304e+03,2.39983456e+01,-6.00985804e-07,3.95663443,2.03015032,-2.84509857,7.47426496e-01,4.16806595e-05,6.47089933,-2.53724738,-1,-0.9362889781886469
2.61005649e+03,2.39983077e+01,-5.71672949e-07,3.96494833,2.01131377,-2.84509859,7.47426498e-01,4.16806593e-05,6.48214763,-2.50257374,-1,-0.9346045156243646
2.67758404e+03,2.39982702e+01,-5.43828710e-07,3.97313301,1.99269015,-2.84509860,7.47426498e-01,4.16806593e-05,6.49355539,-2.46727552,-1,-0.9328503271900248
2.74787972e+03,2.39982331e+01,-5.17632155e-07,3.98119243,1.97433559,-2.84509871,7.47426496e-01,4.16806595e-05,6.50514230,-2.43133405,-1,-0.9310242300068743
2.82107546e+03,2.39981963e+01,-4.93187520e-07,3.98912661,1.95630254,-2.84509896,7.47426498e-01,4.16806593e-05,6.51690444,-2.39478340,-1,-0.9291227968799365
2.89727564e+03,2.39981597e+01,-4.70615176e-07,3.99694074,1.93865105,-2.84509863,7.47426505e-01,4.16806585e-05,6.52883598,-2.35765890,-1,-0.9271433162908937
2.97647798e+03,2.39981242e+01,-4.17403508e-07,4.00465059,1.92144411,-2.84509872,7.47426520e-01,4.16806570e-05,6.54093933,-2.31996559,-1,-0.9250858474681591
3.05862513e+03,2.39980944e+01,-3.27093010e-07,4.01227755,1.90474066,-2.84509874,7.47426521e-01,4.16806569e-05,6.55321166,-2.28173291,-1,-0.9229518802141423
3.14373421e+03,2.39980708e+01,-2.44179732e-07,4.01983577,1.88859065,-2.84509879,7.47426518e-01,4.16806572e-05,6.56562891,-2.24305480,-1,-0.9207409697961972
3.23156015e+03,2.39980534e+01,-1.67232375e-07,4.02735687,1.87301838,-2.84509890,7.47426523e-01,4.16806566e-05,6.57818593,-2.20396780,-1,-0.9184594824894161
3.32199830e+03,2.39980422e+01,-9.50450191e-08,4.03485746,1.85802101,-2.84509910,7.47426547e-01,4.16806542e-05,6.59085082,-2.16460290,-1,-0.9161101368260077
3.41478491e+03,2.39980372e+01,-2.69203106e-08,4.04236514,1.84357084,-2.84509896,7.47426581e-01,4.16806506e-05,6.60361843,-2.12499342,-1,-0.9136997843384141
3.50976077e+03,2.39980351e+01,-2.22296677e-08,4.04989295,1.82959998,-2.84509927,7.47426645e-01,4.16806441e-05,6.61646893,-2.08523375,-1,-0.9112325608843796
3.60684481e+03,2.39980329e+01,-2.29824866e-08,4.05744906,1.81602104,-2.84509931,7.47426711e-01,4.16806372e-05,6.62938742,-2.04538671,-1,-0.9087105724496299
3.70591779e+03,2.39980306e+01,-2.38574339e-08,4.06504545,1.80274255,-2.84509933,7.47426737e-01,4.16806345e-05,6.64237498,-2.00546369,-1,-0.9061369165762629
3.80694840e+03,2.39980281e+01,-2.48473155e-08,4.07268651,1.78966768,-2.84509928,7.47426716e-01,4.16806366e-05,6.65543108,-1.96547360,-1,-0.9035124066158645
3.90995623e+03,2.39980255e+01,-2.59423986e-08,4.08037447,1.77671185,-2.84509920,7.47426684e-01,4.16806398e-05,6.66855569,-1.92542577,-1,-0.9008365336716744
4.01498989e+03,2.39980227e+01,-2.71330412e-08,4.08810957,1.76380574,-2.84509914,7.47426659e-01,4.16806424e-05,6.68175142,-1.88531039,-1,-0.8981080349835332
4.12212897e+03,2.39980197e+01,-2.84112639e-08,4.09589124,1.75089512,-2.84509912,7.47426641e-01,4.16806442e-05,6.69501904,-1.84512263,-1,-0.8953248430122295
4.23144756e+03,2.39980165e+01,-2.97699331e-08,4.10371789,1.73793995,-2.84509908,7.47426624e-01,4.16806457e-05,6.70835898,-1.80485939,-1,-0.8924850330941095
4.34301324e+03,2.39980131e+01,-3.12033658e-08,4.11158760,1.72491228,-2.84509897,7.47426618e-01,4.16806462e-05,6.72176796,-1.76452349,-1,-0.8895868496782258
4.45690385e+03,2.39980095e+01,-3.27076682e-08,4.11949851,1.71179294,-2.84509903,7.47426615e-01,4.16806463e-05,6.73524298,-1.72412040,-1,-0.8866282706857714
4.57319689e+03,2.39980055e+01,-3.42799376e-08,4.12744859,1.69856946,-2.84509917,7.47426607e-01,4.16806469e-05,6.74877998,-1.68365215,-1,-0.8836072828702469
4.69197141e+03,2.39980013e+01,-3.59181883e-08,4.13543573,1.68523433,-2.84509914,7.47426609e-01,4.16806464e-05,6.76237548,-1.64312749,-1,-0.8805218327202227
4.81330861e+03,2.39979969e+01,-3.76208659e-08,4.14345773,1.67178317,-2.84509930,7.47426619e-01,4.16806449e-05,6.77602471,-1.60255344,-1,-0.8773698108729147
