star_age,star_mass,star_mdot,log_Teff,log_R,log_surf_z,surface_h1,surface_he3,log_center_T,log_center_Rho,phase,x
2.36816417e+03,3.59999975e-01,-9.33193201e-12,3.67707457,7.51110936e-01,-4.84509847,7.50949395e-01,4.13306757e-05,5.71267705,-1.67238583,-1,-1.0
2.50446046e+03,3.59999974e-01,-9.16689045e-12,3.67717496,7.48399683e-01,-4.84509847,7.50949395e-01,4.13306759e-05,5.71520494,-1.66484383,-1,-0.9999990265615366
2.64853205e+03,3.59999973e-01,-8.99857440e-12,3.67727570,7.45585237e-01,-4.84509847,7.50949395e-01,4.13306760e-05,5.71782962,-1.65701524,-1,-0.9999979975912897
2.80071639e+03,3.59999971e-01,-8.82699284e-12,3.67738029,7.42667326e-01,-4.84509847,7.50949395e-01,4.13306762e-05,5.72055121,-1.64889454,-1,-0.9999969106791655
2.96134383e+03,3.59999970e-01,-8.65283167e-12,3.67748730,7.39645849e-01,-4.84509847,7.50949395e-01,4.13306764e-05,5.72336971,-1.64048296,-1,-0.9999957634657795
3.13116979e+03,3.59999969e-01,-8.47590987e-12,3.67759685,7.36515301e-01,-4.84509847,7.50949395e-01,4.13306766e-05,5.72629050,-1.63176553,-1,-0.9999945505558643
3.31048909e+03,3.59999967e-01,-8.29650304e-12,3.67770879,7.33277312e-01,-4.84509847,7.50949395e-01,4.13306769e-05,5.72931232,-1.62274384,-1,-0.9999932698437932
3.50069245e+03,3.59999966e-01,-8.11468699e-12,3.67782322,7.29921566e-01,-4.84509847,7.50949395e-01,4.13306772e-05,5.73244503,-1.61338936,-1,-0.9999919113969383
3.70115564e+03,3.59999964e-01,-7.93096432e-12,3.67793986,7.26459354e-01,-4.84509847,7.50949395e-01,4.13306776e-05,5.73567818,-1.60373434,-1,-0.9999904796735977
3.91322588e+03,3.59999962e-01,-7.74547766e-12,3.67805877,7.22882392e-01,-4.84509847,7.50949395e-01,4.13306781e-05,5.73901990,-1.59375298,-1,-0.9999889650518237
4.13736438e+03,3.59999961e-01,-7.55851745e-12,3.67817982,7.19191652e-01,-4.84509847,7.50949395e-01,4.13306787e-05,5.74246953,-1.58345017,-1,-0.9999873642376195
4.37422315e+03,3.59999959e-01,-7.37044111e-12,3.67831238,7.15386678e-01,-4.84509847,7.50949395e-01,4.13306794e-05,5.74602795,-1.57282066,-1,-0.99998567257428
4.62457437e+03,3.59999957e-01,-7.18188598e-12,3.67844189,7.11466741e-01,-4.84509847,7.50949395e-01,4.13306803e-05,5.74969568,-1.56186543,-1,-0.999983884546837
4.88916978e+03,3.59999955e-01,-6.99283593e-12,3.67857031,7.07431794e-01,-4.84509847,7.50949395e-01,4.13306814e-05,5.75347247,-1.55058378,-1,-0.9999819947863062
5.16829404e+03,3.59999953e-01,-6.80273633e-12,3.67869947,7.03285589e-01,-4.84509847,7.50949395e-01,4.13306828e-05,5.75735490,-1.53898651,-1,-0.9999800012596245
5.46407528e+03,3.59999951e-01,-6.61292560e-12,3.67882978,6.99019028e-01,-4.84509847,7.50949395e-01,4.13306844e-05,5.76135172,-1.52704515,-1,-0.9999778887675255
5.77637207e+03,3.59999949e-01,-6.42351467e-12,3.67896126,6.94640312e-01,-4.84509847,7.50949395e-01,4.13306865e-05,5.76545468,-1.51478379,-1,-0.9999756583201129
6.10611545e+03,3.59999947e-01,-6.23457291e-12,3.67909432,6.90149457e-01,-4.84509847,7.50949395e-01,4.13306892e-05,5.76966418,-1.50220152,-1,-0.9999733032678284
6.45442949e+03,3.59999945e-01,-6.04663404e-12,3.67923208,6.85547112e-01,-4.84509847,7.50949395e-01,4.13306925e-05,5.77396444,-1.48932745,-1,-0.9999708155824787
6.82241633e+03,3.59999943e-01,-5.85994781e-12,3.67936594,6.80832840e-01,-4.84509847,7.50949395e-01,4.13306966e-05,5.77838254,-1.47611184,-1,-0.9999681873924959
7.21136857e+03,3.59999941e-01,-5.67463015e-12,3.67949992,6.76012656e-01,-4.84509847,7.50949395e-01,4.13307019e-05,5.78284879,-1.46268415,-1,-0.9999654094660327
7.62237919e+03,3.59999938e-01,-5.49058237e-12,3.67963336,6.71076439e-01,-4.84509847,7.50949395e-01,4.13307085e-05,5.78748347,-1.44882735,-1,-0.9999624739969428
8.05655920e+03,3.59999936e-01,-5.30889177e-12,3.67976721,6.66035679e-01,-4.84509847,7.50949395e-01,4.13307171e-05,5.79220425,-1.43469660,-1,-0.9999593730503085
8.51534146e+03,3.59999934e-01,-5.12977825e-12,3.67990066,6.60886827e-01,-4.84509847,7.50949395e-01,4.13307280e-05,5.79704210,-1.42022904,-1,-0.9999560963925345
8.99993524e+03,3.59999931e-01,-4.95279738e-12,3.68003416,6.55633973e-01,-4.84509847,7.50949395e-01,4.13307420e-05,5.80197786,-1.40546228,-1,-0.9999526353869227
9.51199624e+03,3.59999929e-01,-4.77840483e-12,3.68016587,6.50275919e-01,-4.84509847,7.50949395e-01,4.13307601e-05,5.80701878,-1.39038128,-1,-0.9999489782083378
1.00526088e+04,3.59999926e-01,-4.60692447e-12,3.68029625,6.44819661e-01,-4.84509847,7.50949395e-01,4.13307834e-05,5.81215376,-1.37501380,-1,-0.9999451171123411
1.06233551e+04,3.59999924e-01,-4.43866141e-12,3.68042927,6.39265612e-01,-4.84509847,7.50949395e-01,4.13308136e-05,5.81738402,-1.35935945,-1,-0.9999410407988829
1.12264679e+04,3.59999921e-01,-4.27351261e-12,3.68055600,6.33614392e-01,-4.84509847,7.50949395e-01,4.13308529e-05,5.82270965,-1.34342056,-1,-0.9999367333214214
1.18637854e+04,3.59999919e-01,-4.11189133e-12,3.68068689,6.27868625e-01,-4.84509847,7.50949395e-01,4.13309044e-05,5.82812635,-1.32720784,-1,-0.9999321815513925
1.25362142e+04,3.59999916e-01,-3.95371894e-12,3.68080808,6.22033142e-01,-4.84509847,7.50949395e-01,4.13309713e-05,5.83363044,-1.31073171,-1,-0.9999273790137901
1.32470141e+04,3.59999913e-01,-3.79905358e-12,3.68092528,6.16107208e-01,-4.84509847,7.50949395e-01,4.13310596e-05,5.83922260,-1.29398967,-1,-0.9999223024268749
1.39972494e+04,3.59999910e-01,-3.64827217e-12,3.68103981,6.10098056e-01,-4.84509847,7.50949395e-01,4.13311752e-05,5.84489585,-1.27700425,-1,-0.9999169441893353
1.47897780e+04,3.59999908e-01,-3.50132547e-12,3.68115283,6.04003836e-01,-4.84509847,7.50949395e-01,4.13313278e-05,5.85065285,-1.25976863,-1,-0.9999112838898322
1.56266519e+04,3.59999905e-01,-3.35839106e-12,3.68125940,5.97830784e-01,-4.84509847,7.50949395e-01,4.13315294e-05,5.85648725,-1.24229893,-1,-0.9999053068728259
1.65106054e+04,3.59999902e-01,-3.21932212e-12,3.68136214,5.91580545e-01,-4.84509847,7.50949395e-01,4.13317966e-05,5.86239809,-1.22459802,-1,-0.9998989936097377
1.74431895e+04,3.59999899e-01,-3.08441239e-12,3.68146085,5.85257262e-01,-4.84509847,7.50949395e-01,4.13321493e-05,5.86838129,-1.20667658,-1,-0.9998923330232077
1.84292084e+04,3.59999896e-01,-2.95348850e-12,3.68155313,5.78860438e-01,-4.84509847,7.50949395e-01,4.13326205e-05,5.87443801,-1.18853009,-1,-0.9998852908012744
1.94699608e+04,3.59999893e-01,-2.82690582e-12,3.68165007,5.72394812e-01,-4.84509847,7.50949394e-01,4.13332470e-05,5.88056346,-1.17017628,-1,-0.9998778576685238
2.05682942e+04,3.59999890e-01,-2.70423417e-12,3.68173195,5.65865567e-01,-4.84509847,7.50949394e-01,4.13340805e-05,5.88675215,-1.15163264,-1,-0.9998700132878943
2.17291722e+04,3.59999887e-01,-2.58566096e-12,3.68180941,5.59273554e-01,-4.84509847,7.50949394e-01,4.13351981e-05,5.89300362,-1.13289998,-1,-0.9998617222089774
2.29546138e+04,3.59999884e-01,-2.47107826e-12,3.68187821,5.52623011e-01,-4.84509847,7.50949393e-01,4.13366916e-05,5.89931394,-1.11398829,-1,-0.9998529700119217
2.42481998e+04,3.59999881e-01,-2.36045628e-12,3.68193951,5.45918009e-01,-4.84509847,7.50949393e-01,4.13386885e-05,5.90567922,-1.09490843,-1,-0.9998437311223815
2.56138778e+04,3.59999878e-01,-2.25389901e-12,3.68199466,5.39163436e-01,-4.84509847,7.50949392e-01,4.13413617e-05,5.91209560,-1.07567596,-1,-0.9998339773462973
2.70557182e+04,3.59999874e-01,-2.15131721e-12,3.68204139,5.32361348e-01,-4.84509847,7.50949391e-01,4.13449442e-05,5.91856011,-1.05629279,-1,-0.999823679612563
2.85790110e+04,3.59999871e-01,-2.05266795e-12,3.68207943,5.25516575e-01,-4.84509847,7.50949389e-01,4.13497638e-05,5.92506837,-1.03677799,-1,-0.9998128001395966
3.01872359e+04,3.59999868e-01,-1.95781644e-12,3.68210820,5.18635172e-01,-4.84509847,7.50949387e-01,4.13562306e-05,5.93161454,-1.01714480,-1,-0.9998013140751162
3.18857371e+04,3.59999865e-01,-1.86699798e-12,3.68213953,5.11722776e-01,-4.84509847,7.50949384e-01,4.13649240e-05,5.93819346,-9.97408659e-01,-1,-0.999789183250439
3.36789862e+04,3.59999862e-01,-1.77991164e-12,3.68215249,5.04786241e-01,-4.84509847,7.50949380e-01,4.13765958e-05,5.94479911,-9.77591539e-01,-1,-0.999776375729058
3.55727257e+04,3.59999858e-01,-1.69655527e-12,3.68216216,4.97834665e-01,-4.84509847,7.50949375e-01,4.13922608e-05,5.95142316,-9.57720023e-01,-1,-0.9997628504976017
3.75724343e+04,3.59999855e-01,-1.61684287e-12,3.68215741,4.90876809e-01,-4.84509847,7.50949368e-01,4.14132646e-05,5.95805709,-9.37816372e-01,-1,-0.9997485684267784
3.96843852e+04,3.59999852e-01,-1.54079179e-12,3.68214352,4.83926403e-01,-4.84509847,7.50949358e-01,4.14413904e-05,5.96468748,-9.17923066e-01,-1,-0.9997334847129166
4.19151442e+04,3.59999848e-01,-1.46842813e-12,3.68212071,4.76998461e-01,-4.84509847,7.50949346e-01,4.14789810e-05,5.97130011,-8.98081447e-01,-1,-0.9997175524625738
4.42716903e+04,3.59999845e-01,-1.39969648e-12,3.68208887,4.70108442e-01,-4.84509847,7.50949329e-01,4.15290922e-05,5.97787965,-8.78335969e-01,-1,-0.9997007218312013
4.67615740e+04,3.59999842e-01,-1.33455244e-12,3.68204760,4.63280775e-01,-4.84509847,7.50949307e-01,4.15956471e-05,5.98440268,-8.58760092e-01,-1,-0.9996829388925544
4.93931038e+04,3.59999838e-01,-1.27327970e-12,3.68200047,4.56542032e-01,-4.84509847,7.50949278e-01,4.16836803e-05,5.99084373,-8.39426775e-01,-1,-0.9996641443066946
5.21750047e+04,3.59999835e-01,-1.21564628e-12,3.68194581,4.49926344e-01,-4.84509847,7.50949239e-01,4.17994131e-05,5.99716985,-8.20436801e-01,-1,-0.9996442757590084
5.51169864e+04,3.59999831e-01,-1.16198494e-12,3.68189300,4.43471026e-01,-4.84509847,7.50949189e-01,4.19504233e-05,6.00334532,-8.01898498e-01,-1,-0.9996232639020806
5.82282004e+04,3.59999828e-01,-1.11206436e-12,3.68182794,4.37218559e-01,-4.84509847,7.50949124e-01,4.21454090e-05,6.00932871,-7.83932215e-01,-1,-0.9996010433752024
6.15208403e+04,3.59999824e-01,-1.06607313e-12,3.68176045,4.31216256e-01,-4.84509847,7.50949041e-01,4.23945105e-05,6.01507496,-7.66678487e-01,-1,-0.9995775270907559
6.50087037e+04,3.59999821e-01,-1.02413478e-12,3.68169550,4.25514443e-01,-4.84509847,7.50948936e-01,4.27095578e-05,6.02053563,-7.50278856e-01,-1,-0.9995526165052331
6.86972622e+04,3.59999817e-01,-9.86007444e-13,3.68162416,4.20144315e-01,-4.84509847,7.50948806e-01,4.30989477e-05,6.02568056,-7.34827211e-01,-1,-0.9995262725400507
7.26067653e+04,3.59999813e-01,-9.51798282e-13,3.68155354,4.15153080e-01,-4.84509847,7.50948647e-01,4.35755587e-05,6.03046463,-7.20455543e-01,-1,-0.9994983505717406
7.67427603e+04,3.59999809e-01,-9.21210176e-13,3.68148493,4.10545659e-01,-4.84509847,7.50948457e-01,4.41448404e-05,6.03488234,-7.07185329e-01,-1,-0.9994688109810647
8.11282844e+04,3.59999805e-01,-8.94141718e-13,3.68141936,4.06339568e-01,-4.84509847,7.50948233e-01,4.48162605e-05,6.03891668,-6.95067090e-01,-1,-0.9994374892345892
8.57721327e+04,3.59999801e-01,-8.70148148e-13,3.68135718,4.02503177e-01,-4.84509847,7.50947976e-01,4.55900484e-05,6.04259722,-6.84013020e-01,-1,-0.9994043225170416
9.06801744e+04,3.59999797e-01,-8.48756718e-13,3.68129832,3.98989450e-01,-4.84509847,7.50947685e-01,4.64623902e-05,6.04596904,-6.73882633e-01,-1,-0.9993692689101493
9.58914002e+04,3.59999793e-01,-8.29653601e-13,3.68124251,3.95759790e-01,-4.84509847,7.50947360e-01,4.74368656e-05,6.04906888,-6.64570648e-01,-1,-0.9993320499393691
1.01392337e+05,3.59999788e-01,-8.12121546e-13,3.68118853,3.92716996e-01,-4.84509847,7.50947006e-01,4.84972589e-05,6.05198990,-6.55796031e-01,-1,-0.9992927618306053
1.07215091e+05,3.59999784e-01,-7.95672826e-13,3.68113736,3.89782808e-01,-4.84509847,7.50946626e-01,4.96381191e-05,6.05480723,-6.47331279e-01,-1,-0.9992511752789371
1.13371051e+05,3.59999779e-01,-7.79830408e-13,3.68108380,3.86876963e-01,-4.84509847,7.50946223e-01,5.08482818e-05,6.05759797,-6.38946177e-01,-1,-0.9992072089446892
1.19884386e+05,3.59999774e-01,-7.64004868e-13,3.68102721,3.83905532e-01,-4.84509847,7.50945800e-01,5.21159947e-05,6.06045228,-6.30370597e-01,-1,-0.9991606902110264
1.26747703e+05,3.59999769e-01,-7.47716322e-13,3.68096696,3.80785320e-01,-4.84509847,7.50945364e-01,5.34240715e-05,6.06345003,-6.21364683e-01,-1,-0.9991116718793167
1.34018966e+05,3.59999763e-01,-7.30474411e-13,3.68089907,3.77403627e-01,-4.84509847,7.50944919e-01,5.47606051e-05,6.06669963,-6.11600953e-01,-1,-0.9990597399662663
1.41689358e+05,3.59999758e-01,-7.11802256e-13,3.68082185,3.73673884e-01,-4.84509847,7.50944471e-01,5.61041949e-05,6.07028447,-6.00829402e-01,-1,-0.9990049574435591
1.49761526e+05,3.59999752e-01,-6.91295967e-13,3.68073258,3.69497155e-01,-4.84509847,7.50944028e-01,5.74315492e-05,6.07429997,-5.88762434e-01,-1,-0.99894730540612
1.58289971e+05,3.59999747e-01,-6.68391552e-13,3.68062616,3.64708082e-01,-4.84509847,7.50943601e-01,5.87128624e-05,6.07890531,-5.74922395e-01,-1,-0.9988863946036644
1.67250631e+05,3.59999741e-01,-6.42879627e-13,3.68050304,3.59207678e-01,-4.84509847,7.50943201e-01,5.99141877e-05,6.08419646,-5.59019505e-01,-1,-0.9988223968888251
1.76656313e+05,3.59999735e-01,-6.14559338e-13,3.68034932,3.52862551e-01,-4.84509847,7.50942840e-01,6.09974838e-05,6.09030216,-5.40663734e-01,-1,-0.9987552207930347
1.86508954e+05,3.59999729e-01,-5.83548675e-13,3.68016417,3.45588270e-01,-4.84509847,7.50942529e-01,6.19282793e-05,6.09730512,-5.19609847e-01,-1,-0.998684852482092
1.96826444e+05,3.59999723e-01,-5.50182043e-13,3.67994569,3.37331757e-01,-4.84509847,7.50942280e-01,6.26775678e-05,6.10525729,-4.95701748e-01,-1,-0.9986111641842572
2.07607039e+05,3.59999718e-01,-5.15213240e-13,3.67968964,3.28156670e-01,-4.84509847,7.50942093e-01,6.32363584e-05,6.11409770,-4.69116941e-01,-1,-0.9985341683553107
2.18875637e+05,3.59999712e-01,-4.79387173e-13,3.67940386,3.18125764e-01,-4.84509847,7.50941974e-01,6.35957868e-05,6.12376709,-4.40032854e-01,-1,-0.998453687171844
2.30654162e+05,3.59999707e-01,-4.43866277e-13,3.67907801,3.07459487e-01,-4.84509847,7.50941912e-01,6.37792619e-05,6.13408146,-4.09040430e-01,-1,-0.9983695640509828
2.43007798e+05,3.59999701e-01,-4.09993216e-13,3.67872652,2.96494898e-01,-4.84509847,7.50941891e-01,6.38443305e-05,6.14466671,-3.77204448e-01,-1,-0.998281333443644
2.56024372e+05,3.59999696e-01,-3.78762199e-13,3.67835689,2.85558891e-01,-4.84509847,7.50941886e-01,6.38576959e-05,6.15522558,-3.45435217e-01,-1,-0.9981883680827178
2.69774577e+05,3.59999691e-01,-3.50421654e-13,3.67797940,2.74818828e-01,-4.84509847,7.50941886e-01,6.38590906e-05,6.16560207,-3.14207357e-01,-1,-0.9980901630734249
2.84300199e+05,3.59999687e-01,-3.24697935e-13,3.67759434,2.64301053e-01,-4.84509847,7.50941886e-01,6.38591556e-05,6.17586168,-2.83441688e-01,-1,-0.9979864199769768
2.99647480e+05,3.59999682e-01,-3.01276527e-13,3.67720122,2.53995565e-01,-4.84509847,7.50941886e-01,6.38591568e-05,6.18582561,-2.53447098e-01,-1,-0.9978768085294946
3.15861606e+05,3.59999677e-01,-2.79911136e-13,3.67680008,2.43886802e-01,-4.84509847,7.50941886e-01,6.38591568e-05,6.19560328,-2.24007970e-01,-1,-0.9977610060091315
3.32991451e+05,3.59999673e-01,-2.60373946e-13,3.67639418,2.33959203e-01,-4.84509847,7.50941886e-01,6.38591568e-05,6.20521140,-1.95076352e-01,-1,-0.9976386633540647
3.51085706e+05,3.59999668e-01,-2.42478369e-13,3.67599218,2.24197058e-01,-4.84509847,7.50941886e-01,6.38591568e-05,6.21466366,-1.66612502e-01,-1,-0.997509432809471
3.70192930e+05,3.59999664e-01,-2.26044407e-13,3.67557732,2.14590410e-01,-4.84509847,7.50941886e-01,6.38591568e-05,6.22396774,-1.38587785e-01,-1,-0.9973729675632814
3.90378307e+05,3.59999659e-01,-2.10923721e-13,3.67515820,2.05127708e-01,-4.84509847,7.50941886e-01,6.38591568e-05,6.23313455,-1.10965964e-01,-1,-0.997228802066413
4.11691771e+05,3.59999655e-01,-1.96981104e-13,3.67473821,1.95797454e-01,-4.84509847,7.50941886e-01,6.38591568e-05,6.24217629,-8.37116892e-02,-1,-0.9970765796864421
4.34197167e+05,3.59999651e-01,-1.84127237e-13,3.67431704,1.86590779e-01,-4.84509847,7.50941886e-01,6.38591568e-05,6.25110209,-5.68098457e-02,-1,-0.996915844437526
4.57967957e+05,3.59999647e-01,-1.72249157e-13,3.67389694,1.77499034e-01,-4.84509847,7.50941886e-01,6.38591568e-05,6.25991940,-3.02365844e-02,-1,-0.9967460716484766
4.83070846e+05,3.59999642e-01,-1.61254580e-13,3.67347345,1.68515104e-01,-4.84509847,7.50941886e-01,6.38591568e-05,6.26863419,-3.96457713e-03,-1,-0.9965667849071134
5.09576878e+05,3.59999638e-01,-1.51062185e-13,3.67304826,1.59631662e-01,-4.84509847,7.50941886e-01,6.38591568e-05,6.27725337,2.20306815e-02,-1,-0.9963774768117882
5.37565709e+05,3.59999634e-01,-1.41595848e-13,3.67262415,1.50841219e-01,-4.84509847,7.50941886e-01,6.38591569e-05,6.28578512,4.77712612e-02,-1,-0.9961775784532942
5.67118272e+05,3.59999630e-01,-1.32822226e-13,3.67219815,1.42138024e-01,-4.84509847,7.50941886e-01,6.38591569e-05,6.29423508,7.32637430e-02,-1,-0.9959665118019937
5.98322561e+05,3.59999626e-01,-1.24651617e-13,3.67177280,1.33515738e-01,-4.84509847,7.50941886e-01,6.38591569e-05,6.30260812,9.85250757e-02,-1,-0.9957436483980497
6.31269543e+05,3.59999622e-01,-1.17044967e-13,3.67134722,1.24969076e-01,-4.84509847,7.50941886e-01,6.38591570e-05,6.31090883,1.23573686e-01,-1,-0.995508338548234
6.66055187e+05,3.59999618e-01,-1.09955508e-13,3.67092120,1.16493301e-01,-4.84509847,7.50941886e-01,6.38591571e-05,6.31914254,1.48427666e-01,-1,-0.9952598968346534
7.02782389e+05,3.59999615e-01,-1.03342796e-13,3.67049730,1.08083573e-01,-4.84509847,7.50941886e-01,6.38591572e-05,6.32731430,1.73098623e-01,-1,-0.994997588366255
7.41560850e+05,3.59999611e-01,-9.71727528e-14,3.67007990,9.97351541e-02,-4.84509847,7.50941886e-01,6.38591573e-05,6.33542823,1.97600486e-01,-1,-0.9947206296501577
7.82506422e+05,3.59999607e-01,-9.14121208e-14,3.66965529,9.14461902e-02,-4.84509847,7.50941886e-01,6.38591575e-05,6.34348524,2.21936012e-01,-1,-0.9944281932625717
8.25745463e+05,3.59999603e-01,-8.60237984e-14,3.66923091,8.32129524e-02,-4.84509847,7.50941886e-01,6.38591577e-05,6.35148854,2.46116503e-01,-1,-0.9941193767450561
8.71393974e+05,3.59999599e-01,-8.09798803e-14,3.66880676,7.50311821e-02,-4.84509847,7.50941886e-01,6.38591580e-05,6.35944299,2.70156342e-01,-1,-0.9937933516096514
9.19583070e+05,3.59999596e-01,-7.62555859e-14,3.66838293,6.68975706e-02,-4.84509847,7.50941886e-01,6.38591584e-05,6.36735209,2.94061656e-01,-1,-0.9934491814230615
9.70455111e+05,3.59999592e-01,-7.18343073e-14,3.66796308,5.88089231e-02,-4.84509847,7.50941886e-01,6.38591588e-05,6.37521800,3.17841516e-01,-1,-0.993085849439345
1.02416510e+06,3.59999588e-01,-6.76864866e-14,3.66754014,5.07639076e-02,-4.84509847,7.50941886e-01,6.38591595e-05,6.38304235,3.41499360e-01,-1,-0.9927022486152938
1.08089514e+06,3.59999585e-01,-6.37979578e-14,3.66711795,4.27596157e-02,-4.84509847,7.50941886e-01,6.38591603e-05,6.39082791,3.65049844e-01,-1,-0.99229707835744
1.14077679e+06,3.59999581e-01,-6.01490710e-14,3.66669573,3.47932741e-02,-4.84509847,7.50941886e-01,6.38591613e-05,6.39857830,3.88500566e-01,-1,-0.9918693990614055
1.20398136e+06,3.59999577e-01,-5.67212101e-14,3.66627391,2.68625560e-02,-4.84509847,7.50941886e-01,6.38591626e-05,6.40629464,4.11849867e-01,-1,-0.9914179872181487
1.27071802e+06,3.59999574e-01,-5.35017929e-14,3.66585205,1.89659365e-02,-4.84509847,7.50941886e-01,6.38591643e-05,6.41397744,4.35103164e-01,-1,-0.9909413489196299
1.34120182e+06,3.59999570e-01,-5.04770966e-14,3.66542935,1.11015814e-02,-4.84509847,7.50941886e-01,6.38591665e-05,6.42162896,4.58272142e-01,-1,-0.9904379482624028
1.41559170e+06,3.59999566e-01,-4.76317213e-14,3.66500531,3.26736548e-03,-4.84509847,7.50941886e-01,6.38591693e-05,6.42925110,4.81357152e-01,-1,-0.9899066500849063
1.49410471e+06,3.59999563e-01,-4.49528147e-14,3.66458056,-4.53894069e-03,-4.84509847,7.50941886e-01,6.38591728e-05,6.43684677,5.04367134e-01,-1,-0.9893459041995415
1.57704314e+06,3.59999559e-01,-4.24359887e-14,3.66415359,-1.23179203e-02,-4.84509847,7.50941886e-01,6.38591774e-05,6.44441587,5.27302060e-01,-1,-0.988753551628151
1.66459056e+06,3.59999556e-01,-4.00668536e-14,3.66372613,-2.00710773e-02,-4.84509847,7.50941886e-01,6.38591831e-05,6.45195931,5.50165758e-01,-1,-0.9881282812998411
1.75698331e+06,3.59999552e-01,-3.78338835e-14,3.66329771,-2.77996928e-02,-4.84509847,7.50941886e-01,6.38591904e-05,6.45947760,5.72964179e-01,-1,-0.9874684052563671
