star_age,star_mass,star_mdot,log_Teff,log_R,log_surf_z,surface_h1,surface_he3,log_center_T,log_center_Rho,phase,x
1.57774212e+03,4.99999966e-01,-2.05752885e-11,3.69335347,8.91480253e-01,-4.84509847,7.50949395e-01,4.13306752e-05,5.71235851,-1.95218347,-1,-1.0
1.66773810e+03,4.99999965e-01,-2.02051145e-11,3.69351244,8.88640297e-01,-4.84509847,7.50949395e-01,4.13306752e-05,5.71502124,-1.94423658,-1,-0.9999989217489971
1.76276797e+03,4.99999963e-01,-1.98281368e-11,3.69367655,8.85695998e-01,-4.84509847,7.50949395e-01,4.13306753e-05,5.71778255,-1.93599432,-1,-0.9999977831864454
1.86303446e+03,4.99999961e-01,-1.94448520e-11,3.69384669,8.82647102e-01,-4.84509847,7.50949395e-01,4.13306753e-05,5.72064275,-1.92745728,-1,-0.9999965818834161
1.96873740e+03,4.99999959e-01,-1.90560441e-11,3.69402172,8.79493609e-01,-4.84509847,7.50949395e-01,4.13306754e-05,5.72360172,-1.91862425,-1,-0.9999953154457256
2.08059918e+03,4.99999957e-01,-1.86612869e-11,3.69420114,8.76225874e-01,-4.84509847,7.50949395e-01,4.13306755e-05,5.72666877,-1.90946786,-1,-0.9999939752183458
2.19894632e+03,4.99999955e-01,-1.82605120e-11,3.69438545,8.72843484e-01,-4.84509847,7.50949395e-01,4.13306756e-05,5.72984439,-1.89998815,-1,-0.9999925572892072
2.32351633e+03,4.99999952e-01,-1.78551859e-11,3.69457497,8.69355577e-01,-4.84509847,7.50949395e-01,4.13306757e-05,5.73312005,-1.89020878,-1,-0.9999910648032294
2.45565281e+03,4.99999950e-01,-1.74475900e-11,3.69476991,8.65744728e-01,-4.84509847,7.50949395e-01,4.13306758e-05,5.73651230,-1.88007774,-1,-0.9999894816626038
2.59477808e+03,4.99999948e-01,-1.70361609e-11,3.69496947,8.62026558e-01,-4.84509847,7.50949395e-01,4.13306760e-05,5.74000646,-1.86964223,-1,-0.9999878147885733
2.74220743e+03,4.99999945e-01,-1.66214748e-11,3.69517418,8.58185832e-01,-4.84509847,7.50949395e-01,4.13306762e-05,5.74361701,-1.85885729,-1,-0.9999860484225147
2.89763538e+03,4.99999943e-01,-1.62046401e-11,3.69538338,8.54233831e-01,-4.84509847,7.50949395e-01,4.13306764e-05,5.74733340,-1.84775439,-1,-0.9999841862244147
3.06179412e+03,4.99999940e-01,-1.57862209e-11,3.69559872,8.50165828e-01,-4.84509847,7.50949395e-01,4.13306768e-05,5.75116051,-1.83632102,-1,-0.9999822194218304
3.23544883e+03,4.99999937e-01,-1.53670965e-11,3.69581706,8.45978653e-01,-4.84509847,7.50949395e-01,4.13306771e-05,5.75510093,-1.82454778,-1,-0.9999801388470623
3.41863364e+03,4.99999935e-01,-1.49475286e-11,3.69603979,8.41678407e-01,-4.84509847,7.50949395e-01,4.13306776e-05,5.75914921,-1.81245021,-1,-0.9999779440911954
3.61195051e+03,4.99999932e-01,-1.45284167e-11,3.69626738,8.37264083e-01,-4.84509847,7.50949395e-01,4.13306782e-05,5.76330613,-1.80002779,-1,-0.9999756279420858
3.81619256e+03,4.99999929e-01,-1.41103352e-11,3.69649758,8.32733633e-01,-4.84509847,7.50949395e-01,4.13306790e-05,5.76757398,-1.78727283,-1,-0.9999731808972817
4.03215246e+03,4.99999926e-01,-1.36938275e-11,3.69673065,8.28086023e-01,-4.84509847,7.50949395e-01,4.13306799e-05,5.77195365,-1.77417848,-1,-0.9999705934597233
4.26010851e+03,4.99999923e-01,-1.32783560e-11,3.69696798,8.23325597e-01,-4.84509847,7.50949395e-01,4.13306811e-05,5.77644165,-1.76075966,-1,-0.9999678622950698
4.50075947e+03,4.99999920e-01,-1.28657050e-11,3.69721173,8.18452725e-01,-4.84509847,7.50949395e-01,4.13306826e-05,5.78103772,-1.74701632,-1,-0.9999649790314067
4.75484270e+03,4.99999917e-01,-1.24603552e-11,3.69745850,8.13468611e-01,-4.84509847,7.50949395e-01,4.13306846e-05,5.78574114,-1.73295305,-1,-0.9999619348343485
5.02314809e+03,4.99999913e-01,-1.20570380e-11,3.69770381,8.08374556e-01,-4.84509847,7.50949395e-01,4.13306870e-05,5.79054733,-1.71857998,-1,-0.9999587202401428
5.30665913e+03,4.99999910e-01,-1.16583991e-11,3.69795136,8.03176662e-01,-4.84509847,7.50949395e-01,4.13306902e-05,5.79534499,-1.70409086,-1,-0.9999553234654955
5.60594078e+03,4.99999907e-01,-1.12640552e-11,3.69819934,7.97871861e-01,-4.84509847,7.50949395e-01,4.13306943e-05,5.80030247,-1.68919846,-1,-0.9999517377415637
5.92178962e+03,4.99999903e-01,-1.08752878e-11,3.69845134,7.92459300e-01,-4.84509847,7.50949395e-01,4.13306995e-05,5.80540899,-1.67391210,-1,-0.999947953524441
6.25504434e+03,4.99999900e-01,-1.04933637e-11,3.69870608,7.86944447e-01,-4.84509847,7.50949395e-01,4.13307063e-05,5.81061778,-1.65832268,-1,-0.9999439607656971
6.60727802e+03,4.99999896e-01,-1.01177459e-11,3.69896125,7.81328358e-01,-4.84509847,7.50949395e-01,4.13307151e-05,5.81592334,-1.64244056,-1,-0.9999397406181004
6.97909161e+03,4.99999892e-01,-9.74815501e-12,3.69921686,7.75612804e-01,-4.84509847,7.50949395e-01,4.13307266e-05,5.82133112,-1.62625520,-1,-0.9999352858816076
7.37109057e+03,4.99999889e-01,-9.38625795e-12,3.69947489,7.69800537e-01,-4.84509847,7.50949395e-01,4.13307416e-05,5.82683481,-1.60978039,-1,-0.999930589302141
7.78568255e+03,4.99999885e-01,-9.03286753e-12,3.69973309,7.63892630e-01,-4.84509847,7.50949395e-01,4.13307613e-05,5.83243237,-1.59302474,-1,-0.9999256220334004
8.22263596e+03,4.99999881e-01,-8.68614371e-12,3.69999168,7.57894976e-01,-4.84509847,7.50949395e-01,4.13307871e-05,5.83811796,-1.57600636,-1,-0.9999203868500895
8.68446926e+03,4.99999877e-01,-8.34850630e-12,3.70025123,7.51805289e-01,-4.84509847,7.50949395e-01,4.13308213e-05,5.84389404,-1.55871661,-1,-0.9999148535782824
9.17151290e+03,4.99999873e-01,-8.01921296e-12,3.70051417,7.45632509e-01,-4.84509847,7.50949395e-01,4.13308662e-05,5.84975167,-1.54118361,-1,-0.9999090182588238
9.68595328e+03,4.99999869e-01,-7.69831774e-12,3.70077507,7.39373577e-01,-4.84509847,7.50949395e-01,4.13309258e-05,5.85569355,-1.52339548,-1,-0.9999028546962329
1.02288838e+04,4.99999865e-01,-7.38595097e-12,3.70103439,7.33034133e-01,-4.84509847,7.50949395e-01,4.13310050e-05,5.86171503,-1.50536835,-1,-0.9998963497903728
1.08015002e+04,4.99999861e-01,-7.08222664e-12,3.70129268,7.26617802e-01,-4.84509847,7.50949395e-01,4.13311097e-05,5.86781229,-1.48710849,-1,-0.9998894892149607
1.14065081e+04,4.99999857e-01,-6.78709182e-12,3.70155164,7.20124508e-01,-4.84509847,7.50949395e-01,4.13312499e-05,5.87398613,-1.46861588,-1,-0.9998822405536879
1.20449990e+04,4.99999853e-01,-6.50149943e-12,3.70180695,7.13557495e-01,-4.84509847,7.50949395e-01,4.13314371e-05,5.88023341,-1.44989938,-1,-0.9998745907291817
1.27185899e+04,4.99999849e-01,-6.22483366e-12,3.70205992,7.06921091e-01,-4.84509847,7.50949395e-01,4.13316868e-05,5.88655008,-1.43097372,-1,-0.9998665203680005
1.34293415e+04,4.99999844e-01,-5.95672516e-12,3.70231059,7.00219665e-01,-4.84509847,7.50949395e-01,4.13320206e-05,5.89293215,-1.41185496,-1,-0.9998580047806875
1.41796586e+04,4.99999840e-01,-5.69745889e-12,3.70255902,6.93449799e-01,-4.84509847,7.50949395e-01,4.13324687e-05,5.89938253,-1.39253182,-1,-0.9998490151550891
1.49718224e+04,4.99999836e-01,-5.44628981e-12,3.70280285,6.86619253e-01,-4.84509847,7.50949395e-01,4.13330717e-05,5.90589324,-1.37302195,-1,-0.9998395241599157
1.58077692e+04,4.99999831e-01,-5.20532764e-12,3.70304569,6.79730450e-01,-4.84509847,7.50949394e-01,4.13338823e-05,5.91246264,-1.35333315,-1,-0.9998295085961598
1.66899168e+04,4.99999827e-01,-4.97244829e-12,3.70328494,6.72785728e-01,-4.84509847,7.50949394e-01,4.13349731e-05,5.91908950,-1.33347118,-1,-0.9998189394959134
1.76208577e+04,4.99999822e-01,-4.74797366e-12,3.70352149,6.65788879e-01,-4.84509847,7.50949393e-01,4.13364425e-05,5.92577032,-1.31344848,-1,-0.9998077857981699
1.86033394e+04,4.99999818e-01,-4.53203981e-12,3.70375246,6.58743386e-01,-4.84509847,7.50949393e-01,4.13384241e-05,5.93250222,-1.29327426,-1,-0.9997960145848518
1.96401976e+04,4.99999813e-01,-4.32369863e-12,3.70397849,6.51651924e-01,-4.84509847,7.50949392e-01,4.13410978e-05,5.93928182,-1.27295696,-1,-0.9997835918811487
2.07344585e+04,4.99999809e-01,-4.12470553e-12,3.70420263,6.44519095e-01,-4.84509847,7.50949391e-01,4.13447078e-05,5.94610424,-1.25250807,-1,-0.9997704814298503
2.18892448e+04,4.99999804e-01,-3.93327342e-12,3.70442043,6.37351211e-01,-4.84509847,7.50949389e-01,4.13495830e-05,5.95296262,-1.23194711,-1,-0.9997566458175696
2.31079048e+04,4.99999799e-01,-3.74964101e-12,3.70463288,6.30150734e-01,-4.84509847,7.50949387e-01,4.13561658e-05,5.95985440,-1.21128378,-1,-0.9997420449279834
2.43939215e+04,4.99999795e-01,-3.57342246e-12,3.70483916,6.22921667e-01,-4.84509847,7.50949384e-01,4.13650504e-05,5.96677690,-1.19052449,-1,-0.9997266370309139
2.57517407e+04,4.99999790e-01,-3.40540451e-12,3.70504163,6.15673457e-01,-4.84509847,7.50949380e-01,4.13770749e-05,5.97372220,-1.16969463,-1,-0.9997103688607785
2.71848586e+04,4.99999785e-01,-3.24448180e-12,3.70523432,6.08413068e-01,-4.84509847,7.50949374e-01,4.13933108e-05,5.98068316,-1.14882196,-1,-0.9996931985292488
2.86974845e+04,4.99999781e-01,-3.09103417e-12,3.70542161,6.01151571e-01,-4.84509847,7.50949367e-01,4.14152033e-05,5.98764845,-1.12793145,-1,-0.9996750756042729
3.02941267e+04,4.99999776e-01,-2.94484258e-12,3.70560229,5.93899427e-01,-4.84509847,7.50949357e-01,4.14446779e-05,5.99460776,-1.10705488,-1,-0.9996559460714493
3.19795866e+04,4.99999771e-01,-2.80569559e-12,3.70577195,5.86672583e-01,-4.84509847,7.50949344e-01,4.14842808e-05,6.00154576,-1.08624149,-1,-0.9996357524047154
3.37591901e+04,4.99999766e-01,-2.67368264e-12,3.70593321,5.79489236e-01,-4.84509847,7.50949326e-01,4.15373686e-05,6.00844547,-1.06554525,-1,-0.999614430793921
3.56384031e+04,4.99999761e-01,-2.54860281e-12,3.70608460,5.72371688e-01,-4.84509847,7.50949303e-01,4.16082701e-05,6.01528578,-1.04502977,-1,-0.9995919157515614
3.76231683e+04,4.99999756e-01,-2.43049271e-12,3.70622428,5.65349276e-01,-4.84509847,7.50949271e-01,4.17025022e-05,6.02203785,-1.02477460,-1,-0.9995681360775426
3.97208679e+04,4.99999751e-01,-2.32062313e-12,3.70635706,5.58457097e-01,-4.84509847,7.50949230e-01,4.18273675e-05,6.02866767,-1.00488311,-1,-0.9995430033249745
4.19377196e+04,4.99999746e-01,-2.21768180e-12,3.70647889,5.51736162e-01,-4.84509847,7.50949175e-01,4.19913022e-05,6.03513522,-9.85475765e-01,-1,-0.99951644299896
4.42819950e+04,4.99999741e-01,-2.12226748e-12,3.70659369,5.45233703e-01,-4.84509847,7.50949104e-01,4.22047866e-05,6.04139508,-9.66688112e-01,-1,-0.9994883559966172
4.67625693e+04,4.99999736e-01,-2.03452583e-12,3.70669966,5.39002185e-01,-4.84509847,7.50949012e-01,4.24800378e-05,6.04739660,-9.48676602e-01,-1,-0.9994586359832709
4.93867014e+04,4.99999731e-01,-1.95443246e-12,3.70679142,5.33090479e-01,-4.84509847,7.50948896e-01,4.28292606e-05,6.05309218,-9.31583219e-01,-1,-0.9994271959893006
5.21607810e+04,4.99999726e-01,-1.88188600e-12,3.70687353,5.27537842e-01,-4.84509847,7.50948751e-01,4.32635435e-05,6.05844350,-9.15523941e-01,-1,-0.9993939594590602
5.51025204e+04,4.99999720e-01,-1.81708946e-12,3.70694388,5.22402284e-01,-4.84509847,7.50948572e-01,4.37996665e-05,6.06339439,-9.00666624e-01,-1,-0.9993587141796788
5.82125137e+04,4.99999715e-01,-1.75932509e-12,3.70700565,5.17678450e-01,-4.84509847,7.50948358e-01,4.44413873e-05,6.06794979,-8.86996092e-01,-1,-0.9993214530331842
6.15038553e+04,4.99999709e-01,-1.70819252e-12,3.70705877,5.13369008e-01,-4.84509847,7.50948107e-01,4.51964059e-05,6.07210650,-8.74519625e-01,-1,-0.9992820191342361
6.49894586e+04,4.99999704e-01,-1.66301531e-12,3.70710506,5.09450873e-01,-4.84509847,7.50947816e-01,4.60675850e-05,6.07588706,-8.63172825e-01,-1,-0.9992402577660738
6.86797097e+04,4.99999697e-01,-1.62263848e-12,3.70714521,5.05863291e-01,-4.84509847,7.50947488e-01,4.70511557e-05,6.07934938,-8.52780884e-01,-1,-0.9991960444917755
7.25812364e+04,4.99999691e-01,-1.58640504e-12,3.70718071,5.02526268e-01,-4.84509847,7.50947126e-01,4.81375229e-05,6.08257054,-8.43110529e-01,-1,-0.9991492999029941
7.66986869e+04,4.99999685e-01,-1.55285122e-12,3.70721383,4.99352311e-01,-4.84509847,7.50946734e-01,4.93145147e-05,6.08563497,-8.33912851e-01,-1,-0.999099968309172
8.10657231e+04,4.99999678e-01,-1.52104715e-12,3.70724388,4.96252190e-01,-4.84509847,7.50946313e-01,5.05768523e-05,6.08862881,-8.24925819e-01,-1,-0.9990476464036567
8.56637320e+04,4.99999671e-01,-1.48979995e-12,3.70727286,4.93127955e-01,-4.84509847,7.50945872e-01,5.19013158e-05,6.09164639,-8.15867257e-01,-1,-0.9989925571906972
9.05362313e+04,4.99999664e-01,-1.45805316e-12,3.70730075,4.89870890e-01,-4.84509847,7.50945412e-01,5.32792264e-05,6.09479280,-8.06421800e-01,-1,-0.9989341792802972
9.56671916e+04,4.99999657e-01,-1.42485285e-12,3.70733143,4.86399396e-01,-4.84509847,7.50944943e-01,5.46886274e-05,6.09814702,-7.96352117e-01,-1,-0.9988727047223306
1.01093977e+05,4.99999649e-01,-1.38920276e-12,3.70736142,4.82582491e-01,-4.84509847,7.50944469e-01,5.61106941e-05,6.10183561,-7.85277361e-01,-1,-0.9988076858537097
1.06801863e+05,4.99999642e-01,-1.35022831e-12,3.70739362,4.78342433e-01,-4.84509847,7.50943998e-01,5.75213820e-05,6.10593401,-7.72972136e-01,-1,-0.9987392990901689
1.12826482e+05,4.99999634e-01,-1.30675621e-12,3.70742490,4.73509642e-01,-4.84509847,7.50943543e-01,5.88883779e-05,6.11060652,-7.58943777e-01,-1,-0.9986671175162943
1.19166433e+05,4.99999626e-01,-1.25798668e-12,3.70745701,4.67943607e-01,-4.84509847,7.50943115e-01,6.01719888e-05,6.11598908,-7.42781951e-01,-1,-0.9985911579176098
1.25823470e+05,4.99999618e-01,-1.20331808e-12,3.70748792,4.61485395e-01,-4.84509847,7.50942730e-01,6.13251907e-05,6.12223596,-7.24023526e-01,-1,-0.9985113992792625
1.32793239e+05,4.99999609e-01,-1.14249684e-12,3.70751742,4.53984590e-01,-4.84509847,7.50942407e-01,6.22957497e-05,6.12949339,-7.02228533e-01,-1,-0.9984278937669699
1.40070842e+05,4.99999601e-01,-1.07573506e-12,3.70753841,4.45328442e-01,-4.84509847,7.50942161e-01,6.30331258e-05,6.13787185,-6.77063565e-01,-1,-0.9983407000641691
1.47657685e+05,4.99999594e-01,-1.00488833e-12,3.70754676,4.35531467e-01,-4.84509847,7.50942003e-01,6.35081147e-05,6.14736013,-6.48561434e-01,-1,-0.9982498013254307
1.55570398e+05,4.99999586e-01,-9.32951914e-13,3.70754377,4.24860001e-01,-4.84509847,7.50941922e-01,6.37492717e-05,6.15770177,-6.17498334e-01,-1,-0.998154998305031
1.63854281e+05,4.99999579e-01,-8.63424516e-13,3.70751424,4.13753218e-01,-4.84509847,7.50941893e-01,6.38363812e-05,6.16846961,-5.85154664e-01,-1,-0.9980557482590559
1.72570328e+05,4.99999572e-01,-7.98879092e-13,3.70746106,4.02614251e-01,-4.84509847,7.50941887e-01,6.38563307e-05,6.17927338,-5.52695516e-01,-1,-0.9979513204121788
1.81765897e+05,4.99999565e-01,-7.40018568e-13,3.70738463,3.91648641e-01,-4.84509847,7.50941886e-01,6.38589658e-05,6.18991697,-5.20707988e-01,-1,-0.9978411473633781
1.91473136e+05,4.99999558e-01,-6.86529798e-13,3.70729133,3.80898192e-01,-4.84509847,7.50941886e-01,6.38591507e-05,6.20047272,-4.89125058e-01,-1,-0.9977248439441916
2.01725876e+05,4.99999551e-01,-6.37700107e-13,3.70717835,3.70360491e-01,-4.84509847,7.50941886e-01,6.38591567e-05,6.21074790,-4.58292912e-01,-1,-0.9976020048219622
2.12548125e+05,4.99999544e-01,-5.92984912e-13,3.70704641,3.60018920e-01,-4.84509847,7.50941886e-01,6.38591568e-05,6.22079796,-4.28084451e-01,-1,-0.9974723423543965
2.23974450e+05,4.99999538e-01,-5.52090500e-13,3.70689861,3.49860746e-01,-4.84509847,7.50941886e-01,6.38591568e-05,6.23067402,-3.98393360e-01,-1,-0.997335442390747
2.36033834e+05,4.99999531e-01,-5.14520416e-13,3.70673410,3.39874177e-01,-4.84509847,7.50941886e-01,6.38591568e-05,6.24038750,-3.69191831e-01,-1,-0.9971909576827385
2.48764056e+05,4.99999525e-01,-4.79939547e-13,3.70654950,3.30045502e-01,-4.84509847,7.50941886e-01,6.38591568e-05,6.24994975,-3.40442677e-01,-1,-0.997038435596324
2.62199661e+05,4.99999519e-01,-4.48100693e-13,3.70635803,3.20362230e-01,-4.84509847,7.50941886e-01,6.38591568e-05,6.25937466,-3.12101585e-01,-1,-0.9968774622443399
2.76375411e+05,4.99999513e-01,-4.18656948e-13,3.70613998,3.10819224e-01,-4.84509847,7.50941886e-01,6.38591568e-05,6.26866594,-2.84157466e-01,-1,-0.9967076211397236
2.91339341e+05,4.99999507e-01,-3.91485929e-13,3.70590764,3.01406707e-01,-4.84509847,7.50941886e-01,6.38591568e-05,6.27783394,-2.56585818e-01,-1,-0.9965283367702474
3.07129146e+05,4.99999501e-01,-3.66321589e-13,3.70566162,2.92116149e-01,-4.84509847,7.50941886e-01,6.38591568e-05,6.28688588,-2.29358241e-01,-1,-0.9963391575082772
3.23791630e+05,4.99999495e-01,-3.43007353e-13,3.70540194,2.82939908e-01,-4.84509847,7.50941886e-01,6.38591568e-05,6.29582982,-2.02454128e-01,-1,-0.9961395225903213
3.41372653e+05,4.99999489e-01,-3.21360383e-13,3.70512660,2.73870559e-01,-4.84509847,7.50941886e-01,6.38591568e-05,6.30467338,-1.75850338e-01,-1,-0.9959288825630491
3.59923116e+05,4.99999484e-01,-3.01244304e-13,3.70483635,2.64901707e-01,-4.84509847,7.50941886e-01,6.38591568e-05,6.31342146,-1.49533512e-01,-1,-0.9957066275763948
3.79497758e+05,4.99999478e-01,-2.82557511e-13,3.70453521,2.56027011e-01,-4.84509847,7.50941886e-01,6.38591568e-05,6.32207950,-1.23482174e-01,-1,-0.9954721017968242
4.00151685e+05,4.99999472e-01,-2.65152845e-13,3.70422069,2.47241709e-01,-4.84509847,7.50941886e-01,6.38591569e-05,6.33065131,-9.76852138e-02,-1,-0.9952246449937384
4.21943684e+05,4.99999467e-01,-2.48937579e-13,3.70389259,2.38540933e-01,-4.84509847,7.50941886e-01,6.38591569e-05,6.33914339,-7.21269771e-02,-1,-0.9949635528341025
4.44936617e+05,4.99999461e-01,-2.33804517e-13,3.70355374,2.29919878e-01,-4.84509847,7.50941886e-01,6.38591570e-05,6.34755959,-4.67909228e-02,-1,-0.994688072161892
4.69196602e+05,4.99999456e-01,-2.19698287e-13,3.70320361,2.21374303e-01,-4.84509847,7.50941886e-01,6.38591570e-05,6.35590393,-2.16708575e-02,-1,-0.9943974108106143
4.94793423e+05,4.99999451e-01,-2.06522774e-13,3.70284362,2.12900039e-01,-4.84509847,7.50941886e-01,6.38591571e-05,6.36418043,3.25242808e-03,-1,-0.9940907326910576
5.21797890e+05,4.99999445e-01,-1.94193203e-13,3.70247390,2.04493204e-01,-4.84509847,7.50941886e-01,6.38591572e-05,6.37239322,2.79856589e-02,-1,-0.9937671894213996
5.50287612e+05,4.99999440e-01,-1.82686396e-13,3.70209189,1.96150570e-01,-4.84509847,7.50941886e-01,6.38591573e-05,6.38054570,5.25347283e-02,-1,-0.9934258511603065
5.80354973e+05,4.99999435e-01,-1.71909579e-13,3.70169831,1.87869209e-01,-4.84509847,7.50941886e-01,6.38591575e-05,6.38863947,7.69107154e-02,-1,-0.9930656110456644
6.12072196e+05,4.99999429e-01,-1.61811362e-13,3.70129419,1.79645584e-01,-4.84509847,7.50941886e-01,6.38591578e-05,6.39667811,1.01124902e-01,-1,-0.9926856037663542
6.45533912e+05,4.99999424e-01,-1.52352165e-13,3.70087946,1.71477456e-01,-4.84509847,7.50941886e-01,6.38591581e-05,6.40466323,1.25182194e-01,-1,-0.9922846955387262
6.80827397e+05,4.99999419e-01,-1.43481013e-13,3.70045499,1.63362337e-01,-4.84509847,7.50941886e-01,6.38591585e-05,6.41259759,1.49093862e-01,-1,-0.9918618407001351
7.18082790e+05,4.99999414e-01,-1.35156619e-13,3.70002099,1.55298015e-01,-4.84509847,7.50941886e-01,6.38591590e-05,6.42048372,1.72862668e-01,-1,-0.9914154800419664
7.57381403e+05,4.99999409e-01,-1.27365328e-13,3.69957839,1.47281094e-01,-4.84509847,7.50941886e-01,6.38591596e-05,6.42832506,1.96495326e-01,-1,-0.9909446393568663
7.98832412e+05,4.99999404e-01,-1.20038805e-13,3.69912681,1.39309092e-01,-4.84509847,7.50941886e-01,6.38591604e-05,6.43612372,2.20003827e-01,-1,-0.9904480105960586
8.42575616e+05,4.99999399e-01,-1.13160908e-13,3.69866609,1.31380531e-01,-4.84509847,7.50941886e-01,6.38591615e-05,6.44388181,2.43387221e-01,-1,-0.9899239188134851
8.88724672e+05,4.99999394e-01,-1.06693944e-13,3.69819734,1.23493657e-01,-4.84509847,7.50941886e-01,6.38591628e-05,6.45159935,2.66659931e-01,-1,-0.9893710022730523
9.37400795e+05,4.99999389e-01,-1.00625050e-13,3.69772134,1.15647123e-01,-4.84509847,7.50941886e-01,6.38591646e-05,6.45927782,2.89819415e-01,-1,-0.988787808685499
9.88775086e+05,4.99999384e-01,-9.49189391e-14,3.69723863,1.07839311e-01,-4.84509847,7.50941886e-01,6.38591668e-05,6.46691878,3.12869626e-01,-1,-0.9881722880723167
1.04297017e+06,4.99999379e-01,-8.95509442e-14,3.69675014,1.00067548e-01,-4.84509847,7.50941886e-01,6.38591696e-05,6.47452506,3.35818337e-01,-1,-0.9875229712508904
1.10013110e+06,4.99999374e-01,-8.45017319e-14,3.69625216,9.23309225e-02,-4.84509847,7.50941886e-01,6.38591731e-05,6.48209746,3.58666227e-01,-1,-0.9868381203264529
