star_age,star_mass,star_mdot,log_Teff,log_R,log_surf_z,surface_h1,surface_he3,log_center_T,log_center_Rho,phase,x
1.49877165e+04,9.99999928e-02,-4.01480024e-13,3.60850282,2.01952770e-01,-4.84509847,7.50949395e-01,4.13307610e-05,5.71337187,-6.08352235e-01,-1,-1.0
1.58739116e+04,9.99999924e-02,-3.93782920e-13,3.60842096,1.99260551e-01,-4.84509847,7.50949395e-01,4.13307733e-05,5.71581222,-6.00972188e-01,-1,-0.9999992577221979
1.68108048e+04,9.99999921e-02,-3.85961607e-13,3.60833579,1.96472268e-01,-4.84509847,7.50949395e-01,4.13307877e-05,5.71831684,-5.93373133e-01,-1,-0.9999984729796223
1.78003279e+04,9.99999917e-02,-3.78023394e-13,3.60824698,1.93580567e-01,-4.84509847,7.50949395e-01,4.13308046e-05,5.72094673,-5.85429533e-01,-1,-0.9999976441541957
1.88451214e+04,9.99999913e-02,-3.69960102e-13,3.60815483,1.90591233e-01,-4.84509847,7.50949395e-01,4.13308245e-05,5.72366083,-5.77226880e-01,-1,-0.999996769034233
1.99581942e+04,9.99999909e-02,-3.61788866e-13,3.60805862,1.87481314e-01,-4.84509847,7.50949395e-01,4.13308486e-05,5.72648986,-5.68677887e-01,-1,-0.999995836723468
2.11310074e+04,9.99999905e-02,-3.53524002e-13,3.60795906,1.84272786e-01,-4.84509847,7.50949395e-01,4.13308769e-05,5.72940894,-5.59856897e-01,-1,-0.9999948543740911
2.23748269e+04,9.99999900e-02,-3.45177656e-13,3.60785584,1.80954320e-01,-4.84509847,7.50949395e-01,4.13309110e-05,5.73242613,-5.50734567e-01,-1,-0.9999938125497743
2.36895047e+04,9.99999896e-02,-3.36767877e-13,3.60774877,1.77527576e-01,-4.84509847,7.50949395e-01,4.13309519e-05,5.73554468,-5.41304965e-01,-1,-0.9999927113744824
2.50831103e+04,9.99999891e-02,-3.28296440e-13,3.60763780,1.73988809e-01,-4.84509847,7.50949395e-01,4.13310014e-05,5.73876545,-5.31562002e-01,-1,-0.9999915440891952
2.65529512e+04,9.99999887e-02,-3.19790302e-13,3.60752326,1.70346984e-01,-4.84509847,7.50949395e-01,4.13310607e-05,5.74208076,-5.21528917e-01,-1,-0.9999903129491532
2.81156889e+04,9.99999882e-02,-3.11250462e-13,3.60740488,1.66584994e-01,-4.84509847,7.50949395e-01,4.13311340e-05,5.74550678,-5.11159099e-01,-1,-0.9999890039986691
2.97662573e+04,9.99999877e-02,-3.02700546e-13,3.60728321,1.62718065e-01,-4.84509847,7.50949395e-01,4.13312229e-05,5.74902903,-5.00493273e-01,-1,-0.9999876214811126
3.15110436e+04,9.99999872e-02,-2.94153750e-13,3.60715829,1.58742027e-01,-4.84509847,7.50949395e-01,4.13313315e-05,5.75265233,-4.89520217e-01,-1,-0.9999861600465596
3.33566623e+04,9.99999866e-02,-2.85620152e-13,3.60703014,1.54657419e-01,-4.84509847,7.50949395e-01,4.13314647e-05,5.75637530,-4.78242044e-01,-1,-0.9999846141546987
3.53133929e+04,9.99999861e-02,-2.77117079e-13,3.60689846,1.50459098e-01,-4.84509847,7.50949395e-01,4.13316303e-05,5.76020386,-4.66642878e-01,-1,-0.999982975195412
3.73829561e+04,9.99999855e-02,-2.68658007e-13,3.60676330,1.46154019e-01,-4.84509847,7.50949395e-01,4.13318353e-05,5.76413043,-4.54743240e-01,-1,-0.9999812417274393
3.95720207e+04,9.99999849e-02,-2.60258196e-13,3.60662468,1.41741599e-01,-4.84509847,7.50949395e-01,4.13320901e-05,5.76815624,-4.42542095e-01,-1,-0.999979408164988
4.18875851e+04,9.99999844e-02,-2.51925203e-13,3.60648305,1.37224617e-01,-4.84509847,7.50949395e-01,4.13324078e-05,5.77227796,-4.30048041e-01,-1,-0.9999774686461919
4.43367612e+04,9.99999838e-02,-2.43672925e-13,3.60633860,1.32604513e-01,-4.84509847,7.50949395e-01,4.13328051e-05,5.77649400,-4.17263877e-01,-1,-0.9999754172141173
4.69279615e+04,9.99999831e-02,-2.35522908e-13,3.60619123,1.27878496e-01,-4.84509847,7.50949394e-01,4.13333044e-05,5.78080775,-4.04177857e-01,-1,-0.9999732468224468
4.96722982e+04,9.99999825e-02,-2.27483188e-13,3.60604106,1.23051959e-01,-4.84509847,7.50949394e-01,4.13339368e-05,5.78521354,-3.90805251e-01,-1,-0.9999709481635918
5.25743907e+04,9.99999819e-02,-2.19551104e-13,3.60588825,1.18123473e-01,-4.84509847,7.50949394e-01,4.13347358e-05,5.78971376,-3.77139090e-01,-1,-0.9999685173683387
5.56422558e+04,9.99999812e-02,-2.11756269e-13,3.60573330,1.13100238e-01,-4.84509847,7.50949394e-01,4.13357464e-05,5.79430159,-3.63201327e-01,-1,-0.9999659477218087
5.88856270e+04,9.99999805e-02,-2.04102215e-13,3.60557627,1.07982016e-01,-4.84509847,7.50949393e-01,4.13370289e-05,5.79897760,-3.48990471e-01,-1,-0.9999632310712137
6.23226968e+04,9.99999799e-02,-1.96590784e-13,3.60541707,1.02769273e-01,-4.84509847,7.50949393e-01,4.13386784e-05,5.80374123,-3.34508374e-01,-1,-0.9999603521784994
6.59529931e+04,9.99999792e-02,-1.89237790e-13,3.60525543,9.74700922e-02,-4.84509847,7.50949392e-01,4.13407757e-05,5.80858470,-3.19781942e-01,-1,-0.9999573114390973
6.97956291e+04,9.99999785e-02,-1.82045228e-13,3.60509136,9.20819276e-02,-4.84509847,7.50949391e-01,4.13434751e-05,5.81350997,-3.04804279e-01,-1,-0.999954092843774
7.38586944e+04,9.99999777e-02,-1.75021768e-13,3.60492581,8.66131474e-02,-4.84509847,7.50949390e-01,4.13469401e-05,5.81850906,-2.89596242e-01,-1,-0.9999506896166735
7.81574363e+04,9.99999770e-02,-1.68178416e-13,3.60475843,8.10649175e-02,-4.84509847,7.50949388e-01,4.13514125e-05,5.82358127,-2.74157391e-01,-1,-0.9999470889866438
8.27013985e+04,9.99999763e-02,-1.61513094e-13,3.60458944,7.54454374e-02,-4.84509847,7.50949386e-01,4.13571685e-05,5.82871894,-2.58509667e-01,-1,-0.9999432829598731
8.75130738e+04,9.99999755e-02,-1.55047772e-13,3.60442106,6.97566495e-02,-4.84509847,7.50949384e-01,4.13646556e-05,5.83392182,-2.42661085e-01,-1,-0.9999392526963723
9.25968592e+04,9.99999747e-02,-1.48770958e-13,3.60425235,6.40080748e-02,-4.84509847,7.50949381e-01,4.13743080e-05,5.83918044,-2.26638703e-01,-1,-0.9999349945132103
9.79777086e+04,9.99999740e-02,-1.42701337e-13,3.60408369,5.82056938e-02,-4.84509847,7.50949377e-01,4.13868646e-05,5.84448950,-2.10461417e-01,-1,-0.9999304875089783
1.03671300e+05,9.99999732e-02,-1.36837219e-13,3.60391503,5.23587126e-02,-4.84509847,7.50949371e-01,4.14032020e-05,5.84984048,-1.94155759e-01,-1,-0.9999257185517697
1.09690490e+05,9.99999724e-02,-1.31175501e-13,3.60374638,4.64789266e-02,-4.84509847,7.50949364e-01,4.14243686e-05,5.85522180,-1.77752792e-01,-1,-0.9999206768728847
1.16056396e+05,9.99999716e-02,-1.25737322e-13,3.60357825,4.05799881e-02,-4.84509847,7.50949355e-01,4.14518203e-05,5.86062060,-1.61291500e-01,-1,-0.9999153447843705
1.22800226e+05,9.99999707e-02,-1.20522388e-13,3.60341186,3.46757646e-02,-4.84509847,7.50949343e-01,4.14876850e-05,5.86602393,-1.44803712e-01,-1,-0.9999096961463786
1.29933370e+05,9.99999699e-02,-1.15536742e-13,3.60324785,2.87875396e-02,-4.84509847,7.50949327e-01,4.15341343e-05,5.87141275,-1.28349400e-01,-1,-0.9999037214186348
1.37479245e+05,9.99999691e-02,-1.10778401e-13,3.60308640,2.29370004e-02,-4.84509847,7.50949307e-01,4.15941311e-05,5.87676798,-1.11987875e-01,-1,-0.9998974009870392
1.45464485e+05,9.99999682e-02,-1.06274464e-13,3.60292661,1.71526645e-02,-4.84509847,7.50949282e-01,4.16714279e-05,5.88206408,-9.58031239e-02,-1,-0.9998907125429297
1.53930069e+05,9.99999673e-02,-1.02025975e-13,3.60277214,1.14645066e-02,-4.84509847,7.50949248e-01,4.17713703e-05,5.88727371,-7.98788774e-02,-1,-0.9998836217622596
1.62889741e+05,9.99999664e-02,-9.80315141e-14,3.60262311,5.91011268e-03,-4.84509847,7.50949206e-01,4.18987726e-05,5.89236191,-6.43241865e-02,-1,-0.9998761171330424
1.72372050e+05,9.99999655e-02,-9.43127502e-14,3.60247997,5.26388794e-04,-4.84509847,7.50949152e-01,4.20597814e-05,5.89729410,-4.92428691e-02,-1,-0.99986817474261
1.82438537e+05,9.99999646e-02,-9.08852965e-14,3.60234379,-4.63257601e-03,-4.84509847,7.50949084e-01,4.22638100e-05,5.90201972,-3.47880478e-02,-1,-0.9998597430441667
1.93086397e+05,9.99999637e-02,-8.77305886e-14,3.60221552,-9.53780560e-03,-4.84509847,7.50949000e-01,4.25157110e-05,5.90651321,-2.10322451e-02,-1,-0.9998508243871826
2.04395300e+05,9.99999627e-02,-8.48780272e-14,3.60209685,-1.41294786e-02,-4.84509847,7.50948897e-01,4.28271102e-05,5.91071948,-8.14913401e-03,-1,-0.9998413520399952
2.16379851e+05,9.99999617e-02,-8.23133447e-14,3.60198789,-1.83865142e-02,-4.84509847,7.50948771e-01,4.32033439e-05,5.91461949,3.80164613e-03,-1,-0.9998313137694435
2.29084160e+05,9.99999607e-02,-8.00268462e-14,3.60188880,-2.22873240e-02,-4.84509847,7.50948622e-01,4.36510598e-05,5.91819366,1.47581507e-02,-1,-0.9998206726289522
2.42555335e+05,9.99999596e-02,-7.80052435e-14,3.60179947,-2.58282719e-02,-4.84509847,7.50948447e-01,4.41753667e-05,5.92143838,2.47085140e-02,-1,-0.9998093891608191
2.56827896e+05,9.99999585e-02,-7.62211568e-14,3.60171924,-2.90275194e-02,-4.84509847,7.50948246e-01,4.47778520e-05,5.92437019,3.37028859e-02,-1,-0.9997974344510611
2.71950674e+05,9.99999574e-02,-7.46490861e-14,3.60164729,-3.19138754e-02,-4.84509847,7.50948019e-01,4.54592549e-05,5.92701533,4.18161918e-02,-1,-0.9997847675987895
2.88018926e+05,9.99999562e-02,-7.32614764e-14,3.60158264,-3.45252180e-02,-4.84509847,7.50947765e-01,4.62214962e-05,5.92940850,4.91590989e-02,-1,-0.9997713088166567
3.05005434e+05,9.99999550e-02,-7.20097788e-14,3.60152326,-3.69376170e-02,-4.84509847,7.50947487e-01,4.70550045e-05,5.93161949,5.59458015e-02,-1,-0.9997570809024834
3.22966179e+05,9.99999537e-02,-7.08583956e-14,3.60146767,-3.92096761e-02,-4.84509847,7.50947187e-01,4.79561263e-05,5.93370180,6.23363160e-02,-1,-0.9997420369665344
3.42093267e+05,9.99999524e-02,-6.97841441e-14,3.60141426,-4.13965389e-02,-4.84509847,7.50946863e-01,4.89280055e-05,5.93570598,6.84920842e-02,-1,-0.9997260161006538
3.62315069e+05,9.99999510e-02,-6.87425219e-14,3.60136133,-4.35760582e-02,-4.84509847,7.50946520e-01,4.99570981e-05,5.93770328,7.46257521e-02,-1,-0.9997090783013554
3.83702657e+05,9.99999495e-02,-6.77013434e-14,3.60130733,-4.58062516e-02,-4.84509847,7.50946159e-01,5.10387534e-05,5.93974700,8.09036928e-02,-1,-0.999691164038669
4.06322815e+05,9.99999480e-02,-6.66306144e-14,3.60125107,-4.81461628e-02,-4.84509847,7.50945783e-01,5.21674544e-05,5.94189123,8.74914058e-02,-1,-0.9996722173742568
4.30237142e+05,9.99999465e-02,-6.55024253e-14,3.60119101,-5.06550195e-02,-4.84509847,7.50945393e-01,5.33367015e-05,5.94418982,9.45568064e-02,-1,-0.9996521867127419
4.55562524e+05,9.99999448e-02,-6.42807057e-14,3.60112560,-5.34058617e-02,-4.84509847,7.50944992e-01,5.45398438e-05,5.94671013,1.02305670e-01,-1,-0.999630974150307
4.82453451e+05,9.99999431e-02,-6.29252446e-14,3.60105281,-5.64936458e-02,-4.84509847,7.50944583e-01,5.57674298e-05,5.94953908,1.11009299e-01,-1,-0.999608450285991
5.10782485e+05,9.99999414e-02,-6.14215776e-14,3.60097131,-5.99567990e-02,-4.84509847,7.50944171e-01,5.70042093e-05,5.95271204,1.20773441e-01,-1,-0.9995847218619757
5.40758958e+05,9.99999396e-02,-5.97232118e-14,3.60087965,-6.39365723e-02,-4.84509847,7.50943761e-01,5.82333726e-05,5.95635810,1.32001896e-01,-1,-0.9995596135415921
5.72366602e+05,9.99999377e-02,-5.78097051e-14,3.60077564,-6.85323629e-02,-4.84509847,7.50943361e-01,5.94326257e-05,5.96056875,1.44974233e-01,-1,-0.9995331389509315
6.05716472e+05,9.99999359e-02,-5.56316094e-14,3.60065572,-7.39285082e-02,-4.84509847,7.50942983e-01,6.05685322e-05,5.96551299,1.60213208e-01,-1,-0.9995052050702276
6.40764773e+05,9.99999340e-02,-5.31641150e-14,3.60051791,-8.02835817e-02,-4.84509847,7.50942638e-01,6.16024195e-05,5.97133537,1.78171190e-01,-1,-0.999475848582211
6.77529606e+05,9.99999321e-02,-5.03703287e-14,3.60035994,-8.78292179e-02,-4.84509847,7.50942345e-01,6.24808362e-05,5.97824715,1.99504309e-01,-1,-0.9994450543254679
7.15946876e+05,9.99999302e-02,-4.72664148e-14,3.60018037,-9.67311181e-02,-4.84509847,7.50942122e-01,6.31496402e-05,5.98639776,2.24689520e-01,-1,-0.9994128759860275
7.55934807e+05,9.99999284e-02,-4.39294296e-14,3.59998301,-1.06973477e-01,-4.84509847,7.50941979e-01,6.35796532e-05,5.99577291,2.53702802e-01,-1,-0.9993793820595398
7.97611476e+05,9.99999267e-02,-4.05252106e-14,3.59977798,-1.18289617e-01,-4.84509847,7.50941910e-01,6.37854906e-05,6.00613003,2.85798896e-01,-1,-0.9993444736446049
8.41306493e+05,9.99999250e-02,-3.72638701e-14,3.59957858,-1.30100984e-01,-4.84509847,7.50941889e-01,6.38483832e-05,6.01693734,3.19326606e-01,-1,-0.9993078746595941
8.87428670e+05,9.99999234e-02,-3.42867206e-14,3.59939737,-1.41876801e-01,-4.84509847,7.50941886e-01,6.38584699e-05,6.02770815,3.52792926e-01,-1,-0.9992692426832138
9.36268224e+05,9.99999218e-02,-3.16132155e-14,3.59923702,-1.53404102e-01,-4.84509847,7.50941886e-01,6.38591403e-05,6.03830172,3.85709343e-01,-1,-0.999228334629447
9.87987367e+05,9.99999202e-02,-2.92054701e-14,3.59909653,-1.64663598e-01,-4.84509847,7.50941886e-01,6.38591567e-05,6.04859375,4.17791020e-01,-1,-0.9991850146293788
1.04277395e+06,9.99999187e-02,-2.70343609e-14,3.59897352,-1.75675988e-01,-4.84509847,7.50941886e-01,6.38591568e-05,6.05865318,4.49190783e-01,-1,-0.9991391253388447
1.10076940e+06,9.99999172e-02,-2.50694581e-14,3.59886901,-1.86466333e-01,-4.84509847,7.50941886e-01,6.38591568e-05,6.06850528,4.79988879e-01,-1,-0.9990905482984642
1.16215220e+06,9.99999157e-02,-2.32799803e-14,3.59878033,-1.97055962e-01,-4.84509847,7.50941886e-01,6.38591568e-05,6.07817435,5.10257739e-01,-1,-0.9990391340107181
1.22711465e+06,9.99999143e-02,-2.16499590e-14,3.59870804,-2.07464280e-01,-4.84509847,7.50941886e-01,6.38591568e-05,6.08767633,5.40035218e-01,-1,-0.9989847214049555
1.29585632e+06,9.99999128e-02,-2.01590175e-14,3.59865093,-2.17707529e-01,-4.84509847,7.50941886e-01,6.38591568e-05,6.09702231,5.69356039e-01,-1,-0.9989271433211676
1.36858551e+06,9.99999114e-02,-1.87931110e-14,3.59860820,-2.27801432e-01,-4.84509847,7.50941886e-01,6.38591568e-05,6.10622614,5.98280909e-01,-1,-0.9988662252870896
1.44551826e+06,9.99999100e-02,-1.75378691e-14,3.59857777,-2.37759934e-01,-4.84509847,7.50941886e-01,6.38591568e-05,6.11530281,6.26856995e-01,-1,-0.9988017863474256
1.52690629e+06,9.99999087e-02,-1.63820742e-14,3.59855911,-2.47594687e-01,-4.84509847,7.50941886e-01,6.38591568e-05,6.12426196,6.55105398e-01,-1,-0.9987336156612803
1.61301353e+06,9.99999073e-02,-1.53154108e-14,3.59855145,-2.57316760e-01,-4.84509847,7.50941886e-01,6.38591568e-05,6.13311379,6.83049304e-01,-1,-0.9986614921606516
1.70407036e+06,9.99999060e-02,-1.43313884e-14,3.59855416,-2.66935966e-01,-4.84509847,7.50941886e-01,6.38591568e-05,6.14186716,7.10713357e-01,-1,-0.998585222879047
1.80036113e+06,9.99999046e-02,-1.34193106e-14,3.59856803,-2.76459996e-01,-4.84509847,7.50941886e-01,6.38591569e-05,6.15052936,7.38133088e-01,-1,-0.9985045696446543
1.90224297e+06,9.99999033e-02,-1.25755223e-14,3.59858967,-2.85894453e-01,-4.84509847,7.50941886e-01,6.38591569e-05,6.15910529,7.65336969e-01,-1,-0.9984192333250684
2.00994071e+06,9.99999020e-02,-1.17911015e-14,3.59862007,-2.95248614e-01,-4.84509847,7.50941886e-01,6.38591570e-05,6.16760063,7.92336729e-01,-1,-0.998329025602482
2.12388147e+06,9.99999007e-02,-1.10626296e-14,3.59866063,-3.04528267e-01,-4.84509847,7.50941886e-01,6.38591570e-05,6.17601725,8.19138448e-01,-1,-0.9982335887208041
2.24434161e+06,9.99998995e-02,-1.03849844e-14,3.59871093,-3.13739572e-01,-4.84509847,7.50941886e-01,6.38591571e-05,6.18436355,8.45779607e-01,-1,-0.9981326912006534
2.37176858e+06,9.99998982e-02,-9.75445777e-15,3.59877350,-3.22885480e-01,-4.84509847,7.50941886e-01,6.38591572e-05,6.19264509,8.72278190e-01,-1,-0.9980259582575128
2.50649447e+06,9.99998969e-02,-9.16678738e-15,3.59885011,-3.31971599e-01,-4.84509847,7.50941886e-01,6.38591574e-05,6.20086905,8.98631097e-01,-1,-0.9979131117325039
2.64902225e+06,9.99998957e-02,-8.61904266e-15,3.59893621,-3.41001431e-01,-4.84509847,7.50941886e-01,6.38591576e-05,6.20903900,9.24842607e-01,-1,-0.9977937303375081
2.79966727e+06,9.99998944e-02,-8.10742603e-15,3.59903322,-3.49979727e-01,-4.84509847,7.50941886e-01,6.38591580e-05,6.21716073,9.50927269e-01,-1,-0.9976675499350857
2.95909232e+06,9.99998932e-02,-7.62997581e-15,3.59914271,-3.58908751e-01,-4.84509847,7.50941886e-01,6.38591584e-05,6.22523566,9.76897654e-01,-1,-0.9975340153717446
3.12761164e+06,9.99998919e-02,-7.18340868e-15,3.59926402,-3.67792027e-01,-4.84509847,7.50941886e-01,6.38591589e-05,6.23326403,1.00277202,-1,-0.997392863439782
3.30585512e+06,9.99998907e-02,-6.76585535e-15,3.59939813,-3.76632350e-01,-4.84509847,7.50941886e-01,6.38591596e-05,6.24124332,1.02855772,-1,-0.9972435665427749
3.49437405e+06,9.99998895e-02,-6.37506157e-15,3.59954277,-3.85432025e-01,-4.84509847,7.50941886e-01,6.38591606e-05,6.24917325,1.05425087,-1,-0.9970856629197302
3.69365679e+06,9.99998882e-02,-6.00880987e-15,3.59969777,-3.94193876e-01,-4.84509847,7.50941886e-01,6.38591619e-05,6.25705632,1.07987097,-1,-0.9969187435198785
3.90450668e+06,9.99998870e-02,-5.66572645e-15,3.59986316,-4.02920141e-01,-4.84509847,7.50941886e-01,6.38591636e-05,6.26489591,1.10543230,-1,-0.9967421354649232
4.12744237e+06,9.99998858e-02,-5.34393482e-15,3.60003925,-4.11613554e-01,-4.84509847,7.50941886e-01,6.38591658e-05,6.27269859,1.13094364,-1,-0.9965554043331638
4.36311384e+06,9.99998846e-02,-5.04181290e-15,3.60022363,-4.20274851e-01,-4.84509847,7.50941886e-01,6.38591687e-05,6.28046802,1.15639847,-1,-0.9963580057007757
4.61249235e+06,9.99998834e-02,-4.75831814e-15,3.60041645,-4.28905111e-01,-4.84509847,7.50941886e-01,6.38591725e-05,6.28820679,1.18180108,-1,-0.9961491260395211
4.87613578e+06,9.99998822e-02,-4.49194872e-15,3.60061712,-4.37506919e-01,-4.84509847,7.50941886e-01,6.38591775e-05,6.29591597,1.20715721,-1,-0.9959282980686169
5.15485122e+06,9.99998810e-02,-4.24151257e-15,3.60082637,-4.46082784e-01,-4.84509847,7.50941886e-01,6.38591841e-05,6.30359462,1.23247330,-1,-0.9956948457687631
5.44975046e+06,9.99998797e-02,-4.00606881e-15,3.60104132,-4.54633445e-01,-4.84509847,7.50941886e-01,6.38591927e-05,6.31123814,1.25774382,-1,-0.995447837903669
5.76153828e+06,9.99998785e-02,-3.78447663e-15,3.60126209,-4.63160431e-01,-4.84509847,7.50941886e-01,6.38592039e-05,6.31884523,1.28297241,-1,-0.9951866841489813
6.09114415e+06,9.99998773e-02,-3.57577955e-15,3.60148685,-4.71665680e-01,-4.84509847,7.50941886e-01,6.38592185e-05,6.32641729,1.30815688,-1,-0.9949106059798033
6.43980552e+06,9.99998761e-02,-3.37922966e-15,3.60171572,-4.80150933e-01,-4.84509847,7.50941886e-01,6.38592375e-05,6.33395484,1.33330598,-1,-0.994618566906917
6.80849900e+06,9.99998749e-02,-3.19394709e-15,3.60194804,-4.88617895e-01,-4.84509847,7.50941886e-01,6.38592621e-05,6.34145785,1.35842772,-1,-0.9943097489209197
7.19825485e+06,9.99998737e-02,-3.01931530e-15,3.60218311,-4.97067636e-01,-4.84509847,7.50941886e-01,6.38592940e-05,6.34892525,1.38353759,-1,-0.9939832890751215
7.61041842e+06,9.99998725e-02,-2.85457060e-15,3.60242023,-5.05501998e-01,-4.84509847,7.50941886e-01,6.38593353e-05,6.35635730,1.40863996,-1,-0.9936380605031684
8.04636526e+06,9.99998713e-02,-2.69918476e-15,3.60266028,-5.13923059e-01,-4.84509847,7.50941886e-01,6.38593888e-05,6.36375126,1.43373032,-1,-0.9932729110431598
8.50719462e+06,9.99998701e-02,-2.55243605e-15,3.60290035,-5.22332242e-01,-4.84509847,7.50941886e-01,6.38594577e-05,6.37110626,1.45881695,-1,-0.9928869199623206
8.99436310e+06,9.99998689e-02,-2.41383555e-15,3.60314008,-5.30730201e-01,-4.84509847,7.50941885e-01,6.38595464e-05,6.37842190,1.48389331,-1,-0.9924788672111982
9.50976708e+06,9.99998677e-02,-2.28300901e-15,3.60338139,-5.39119332e-01,-4.84509847,7.50941885e-01,6.38596608e-05,6.38570194,1.50895931,-1,-0.9920471643802217
1.00545635e+07,9.99998665e-02,-2.15929297e-15,3.60361984,-5.47501115e-01,-4.84509847,7.50941885e-01,6.38598076e-05,6.39295037,1.53401048,-1,-0.9915908424154207
1.06304410e+07,9.99998653e-02,-2.04234650e-15,3.60385902,-5.55877455e-01,-4.84509847,7.50941885e-01,6.38599958e-05,6.40016762,1.55904415,-1,-0.991108486910433
1.12395763e+07,9.99998641e-02,-1.93178259e-15,3.60409459,-5.64249962e-01,-4.84509847,7.50941885e-01,6.38602373e-05,6.40735240,1.58406105,-1,-0.9905982746426548
1.18835375e+07,9.99998629e-02,-1.82715796e-15,3.60432574,-5.72619979e-01,-4.84509847,7.50941884e-01,6.38605461e-05,6.41449884,1.60906419,-1,-0.990058892170135
1.25641638e+07,9.99998617e-02,-1.72811574e-15,3.60455171,-5.80988033e-01,-4.84509847,7.50941884e-01,6.38609401e-05,6.42160132,1.63406558,-1,-0.9894887989773214
1.32838632e+07,9.99998605e-02,-1.63437525e-15,3.60477018,-5.89354581e-01,-4.84509847,7.50941884e-01,6.38614430e-05,6.42865390,1.65906762,-1,-0.9888859781212775
