star_age,star_mass,star_mdot,log_Teff,log_R,log_surf_z,surface_h1,surface_he3,log_center_T,log_center_Rho,phase,x
3.84355374e+03,2.49999983e-01,-3.89978110e-12,3.65962414,5.95535987e-01,-4.84509847,7.50949395e-01,4.13306778e-05,5.71274732,-1.36542059,-1,-1.0
4.06811796e+03,2.49999982e-01,-3.82901718e-12,3.65964979,5.92848883e-01,-4.84509847,7.50949395e-01,4.13306783e-05,5.71523724,-1.35799008,-1,-0.9999991624973337
4.30565609e+03,2.49999981e-01,-3.75686787e-12,3.65967541,5.90059215e-01,-4.84509847,7.50949395e-01,4.13306787e-05,5.71782262,-1.35027246,-1,-0.9999982766090243
4.55672475e+03,2.49999980e-01,-3.68342800e-12,3.65970083,5.87166752e-01,-4.84509847,7.50949395e-01,4.13306793e-05,5.72050408,-1.34226950,-1,-0.9999973402591811
4.82187372e+03,2.49999979e-01,-3.60880029e-12,3.65972601,5.84171272e-01,-4.84509847,7.50949395e-01,4.13306800e-05,5.72328189,-1.33397775,-1,-0.9999963513974233
5.10164789e+03,2.49999978e-01,-3.53308407e-12,3.65975081,5.81072946e-01,-4.84509847,7.50949395e-01,4.13306808e-05,5.72615608,-1.32539705,-1,-0.9999953079916067
5.39952943e+03,2.49999977e-01,-3.45623910e-12,3.65977670,5.77853063e-01,-4.84509847,7.50949395e-01,4.13306818e-05,5.72914403,-1.31647613,-1,-0.9999941970551273
5.71362787e+03,2.49999976e-01,-3.37856073e-12,3.65980039,5.74529106e-01,-4.84509847,7.50949395e-01,4.13306830e-05,5.73222992,-1.30726187,-1,-0.9999930256384119
6.04540681e+03,2.49999975e-01,-3.30002634e-12,3.65982333,5.71096756e-01,-4.84509847,7.50949395e-01,4.13306844e-05,5.73541705,-1.29774222,-1,-0.999991788283027
6.39748296e+03,2.49999974e-01,-3.22075568e-12,3.65984539,5.67545741e-01,-4.84509847,7.50949395e-01,4.13306861e-05,5.73871623,-1.28788934,-1,-0.9999904752300645
6.76860678e+03,2.49999973e-01,-3.14095009e-12,3.65986656,5.63889013e-01,-4.84509847,7.50949395e-01,4.13306882e-05,5.74211487,-1.27773635,-1,-0.9999890911396302
7.16229415e+03,2.49999971e-01,-3.06067492e-12,3.65988834,5.60113040e-01,-4.84509847,7.50949395e-01,4.13306907e-05,5.74562562,-1.26724585,-1,-0.9999876228994
7.57813314e+03,2.49999970e-01,-2.97995913e-12,3.65990806,5.56226081e-01,-4.84509847,7.50949395e-01,4.13306938e-05,5.74924090,-1.25644189,-1,-0.9999860720456493
8.01704588e+03,2.49999969e-01,-2.89930368e-12,3.65992735,5.52229538e-01,-4.84509847,7.50949395e-01,4.13306976e-05,5.75295955,-1.24532619,-1,-0.9999844351393335
8.48302733e+03,2.49999968e-01,-2.81862978e-12,3.65994315,5.48114969e-01,-4.84509847,7.50949395e-01,4.13307023e-05,5.75674088,-1.23395846,-1,-0.99998269728142
8.97506473e+03,2.49999966e-01,-2.73800805e-12,3.65995692,5.43888456e-01,-4.84509847,7.50949395e-01,4.13307081e-05,5.76065652,-1.22222519,-1,-0.999980862248954
9.49496917e+03,2.49999965e-01,-2.65739836e-12,3.65996833,5.39550797e-01,-4.84509847,7.50949395e-01,4.13307153e-05,5.76468756,-1.21016151,-1,-0.9999789232875526
1.00445990e+04,2.49999963e-01,-2.57720470e-12,3.65997717,5.35103389e-01,-4.84509847,7.50949395e-01,4.13307244e-05,5.76880756,-1.19781294,-1,-0.9999768734665789
1.06258347e+04,2.49999962e-01,-2.49734050e-12,3.65998851,5.30544639e-01,-4.84509847,7.50949395e-01,4.13307356e-05,5.77304809,-1.18512165,-1,-0.9999747057728631
1.12405258e+04,2.49999960e-01,-2.41822156e-12,3.65999145,5.25872020e-01,-4.84509847,7.50949395e-01,4.13307498e-05,5.77740669,-1.17208701,-1,-0.999972413308662
1.18906509e+04,2.49999959e-01,-2.33968882e-12,3.65999123,5.21093032e-01,-4.84509847,7.50949395e-01,4.13307678e-05,5.78186358,-1.15875117,-1,-0.9999699886948715
1.25781941e+04,2.49999957e-01,-2.26195504e-12,3.65998781,5.16208206e-01,-4.84509847,7.50949395e-01,4.13307906e-05,5.78642216,-1.14511303,-1,-0.9999674245318753
1.33051726e+04,2.49999956e-01,-2.18507735e-12,3.65998083,5.11213644e-01,-4.84509847,7.50949395e-01,4.13308196e-05,5.79108719,-1.13115103,-1,-0.9999647132966123
1.40737095e+04,2.49999954e-01,-2.10930451e-12,3.65997007,5.06118698e-01,-4.84509847,7.50949395e-01,4.13308566e-05,5.79584750,-1.11690176,-1,-0.9999618470710716
1.48859094e+04,2.49999952e-01,-2.03452807e-12,3.65995772,5.00918804e-01,-4.84509847,7.50949395e-01,4.13309039e-05,5.80070956,-1.10234449,-1,-0.9999588180062374
1.57439951e+04,2.49999951e-01,-1.96119095e-12,3.65993900,4.95621435e-01,-4.84509847,7.50949395e-01,4.13309644e-05,5.80566425,-1.08750830,-1,-0.9999556178122722
1.66508486e+04,2.49999949e-01,-1.88899531e-12,3.65991687,4.90226447e-01,-4.84509847,7.50949395e-01,4.13310424e-05,5.81071402,-1.07238565,-1,-0.99995223574088
1.76108756e+04,2.49999947e-01,-1.81828652e-12,3.65988885,4.84731846e-01,-4.84509847,7.50949395e-01,4.13311437e-05,5.81585976,-1.05697539,-1,-0.9999486553611907
1.86243905e+04,2.49999945e-01,-1.74888716e-12,3.65985358,4.79147902e-01,-4.84509847,7.50949395e-01,4.13312744e-05,5.82109096,-1.04130468,-1,-0.9999448755006632
1.96957250e+04,2.49999944e-01,-1.68103212e-12,3.65981508,4.73472053e-01,-4.84509847,7.50949395e-01,4.13314442e-05,5.82641144,-1.02536198,-1,-0.9999408800044073
2.08287175e+04,2.49999942e-01,-1.61474395e-12,3.65976851,4.67708808e-01,-4.84509847,7.50949395e-01,4.13316659e-05,5.83181651,-1.00916072,-1,-0.999936654557274
2.20249719e+04,2.49999940e-01,-1.55003765e-12,3.65971586,4.61862415e-01,-4.84509847,7.50949395e-01,4.13319542e-05,5.83730265,-9.92716714e-01,-1,-0.9999321931775869
2.32906249e+04,2.49999938e-01,-1.48700182e-12,3.65965661,4.55931539e-01,-4.84509847,7.50949395e-01,4.13323333e-05,5.84287127,-9.76025748e-01,-1,-0.9999274729787855
2.46272262e+04,2.49999936e-01,-1.42566751e-12,3.65959083,4.49922546e-01,-4.84509847,7.50949395e-01,4.13328291e-05,5.84851610,-9.59108300e-01,-1,-0.9999224881813297
2.60398539e+04,2.49999934e-01,-1.36605375e-12,3.65951843,4.43837395e-01,-4.84509847,7.50949394e-01,4.13334808e-05,5.85423581,-9.41963393e-01,-1,-0.9999172198466626
2.75335953e+04,2.49999932e-01,-1.30816979e-12,3.65944036,4.37678628e-01,-4.84509847,7.50949394e-01,4.13343420e-05,5.86002786,-9.24597688e-01,-1,-0.999911649001916
2.91108955e+04,2.49999930e-01,-1.25210674e-12,3.65936099,4.31451777e-01,-4.84509847,7.50949394e-01,4.13354737e-05,5.86588725,-9.07025466e-01,-1,-0.9999057665281941
3.07780181e+04,2.49999928e-01,-1.19782482e-12,3.65926722,4.25156834e-01,-4.84509847,7.50949393e-01,4.13369708e-05,5.87181371,-8.89243817e-01,-1,-0.9998995490656681
3.25409150e+04,2.49999926e-01,-1.14530109e-12,3.65917003,4.18802307e-01,-4.84509847,7.50949393e-01,4.13389593e-05,5.87780014,-8.71274353e-01,-1,-0.9998929744169812
3.44029566e+04,2.49999924e-01,-1.09465015e-12,3.65906153,4.12387558e-01,-4.84509847,7.50949392e-01,4.13415910e-05,5.88384719,-8.53118325e-01,-1,-0.9998860300123706
3.63701355e+04,2.49999922e-01,-1.04570332e-12,3.65894916,4.05920134e-01,-4.84509847,7.50949391e-01,4.13450783e-05,5.88994779,-8.34805131e-01,-1,-0.9998786935026907
3.84484889e+04,2.49999920e-01,-9.98504453e-13,3.65882661,3.99403148e-01,-4.84509847,7.50949389e-01,4.13497053e-05,5.89609848,-8.16347311e-01,-1,-0.9998709423724617
4.06457601e+04,2.49999918e-01,-9.53073235e-13,3.65869678,3.92840253e-01,-4.84509847,7.50949387e-01,4.13558708e-05,5.90229572,-7.97750194e-01,-1,-0.9998627477433771
4.29683628e+04,2.49999915e-01,-9.09472175e-13,3.65856295,3.86238463e-01,-4.84509847,7.50949384e-01,4.13640868e-05,5.90853258,-7.79028530e-01,-1,-0.9998540856958169
4.54225548e+04,2.49999913e-01,-8.67583809e-13,3.65842044,3.79606222e-01,-4.84509847,7.50949381e-01,4.13750184e-05,5.91480153,-7.60205877e-01,-1,-0.999844932891583
4.80160924e+04,2.49999911e-01,-8.27481999e-13,3.65827223,3.72949395e-01,-4.84509847,7.50949376e-01,4.13895691e-05,5.92109761,-7.41292390e-01,-1,-0.9998352604038862
5.07571920e+04,2.49999909e-01,-7.89039442e-13,3.65812212,3.66278487e-01,-4.84509847,7.50949369e-01,4.14089287e-05,5.92741109,-7.22323535e-01,-1,-0.9998250375900134
5.36543661e+04,2.49999907e-01,-7.52414936e-13,3.65796462,3.59603161e-01,-4.84509847,7.50949361e-01,4.14346745e-05,5.93373226,-7.03332553e-01,-1,-0.9998142327029594
5.67169310e+04,2.49999904e-01,-7.17472755e-13,3.65780227,3.52940828e-01,-4.84509847,7.50949349e-01,4.14688713e-05,5.94004436,-6.84367024e-01,-1,-0.9998028109979816
5.99548620e+04,2.49999902e-01,-6.84249760e-13,3.65763809,3.46308251e-01,-4.84509847,7.50949334e-01,4.15142056e-05,5.94633072,-6.65478794e-01,-1,-0.9997907352726245
6.33788949e+04,2.49999900e-01,-6.52795546e-13,3.65747581,3.39725910e-01,-4.84509847,7.50949314e-01,4.15741461e-05,5.95257281,-6.46716898e-01,-1,-0.9997779654881807
6.69999854e+04,2.49999898e-01,-6.23119677e-13,3.65730652,3.33222200e-01,-4.84509847,7.50949288e-01,4.16530945e-05,5.95874336,-6.28166011e-01,-1,-0.9997644607858348
7.08304820e+04,2.49999895e-01,-5.95201689e-13,3.65713679,3.26828983e-01,-4.84509847,7.50949253e-01,4.17565490e-05,5.96481275,-6.09916305e-01,-1,-0.9997501751123838
7.48829796e+04,2.49999893e-01,-5.69088476e-13,3.65696591,3.20581350e-01,-4.84509847,7.50949208e-01,4.18911665e-05,5.97074670,-5.92074275e-01,-1,-0.999735061495686
7.91769096e+04,2.49999891e-01,-5.44841653e-13,3.65679801,3.14529926e-01,-4.84509847,7.50949150e-01,4.20658855e-05,5.97649675,-5.74784233e-01,-1,-0.9997190474671651
8.37242371e+04,2.49999888e-01,-5.22514774e-13,3.65663487,3.08718639e-01,-4.84509847,7.50949076e-01,4.22896070e-05,5.98202126,-5.58170886e-01,-1,-0.9997020884034917
8.85372638e+04,2.49999886e-01,-5.02124578e-13,3.65647797,3.03190392e-01,-4.84509847,7.50948982e-01,4.25716359e-05,5.98727885,-5.42356039e-01,-1,-0.9996841384260013
9.36421536e+04,2.49999883e-01,-4.83670584e-13,3.65633048,2.98003401e-01,-4.84509847,7.50948864e-01,4.29245380e-05,5.99221404,-5.27507004e-01,-1,-0.9996650999575463
9.90439926e+04,2.49999881e-01,-4.67079049e-13,3.65618883,2.93179628e-01,-4.84509847,7.50948720e-01,4.33551571e-05,5.99680560,-5.13691068e-01,-1,-0.999644954029734
1.04781599e+05,2.49999878e-01,-4.52400035e-13,3.65605977,2.88769763e-01,-4.84509847,7.50948546e-01,4.38774065e-05,6.00100460,-5.01055144e-01,-1,-0.9996235558717456
1.10858898e+05,2.49999875e-01,-4.39417309e-13,3.65594032,2.84757776e-01,-4.84509847,7.50948341e-01,4.44932172e-05,6.00482575,-4.89556766e-01,-1,-0.9996008908447153
1.17295196e+05,2.49999873e-01,-4.27996236e-13,3.65583292,2.81128337e-01,-4.84509847,7.50948104e-01,4.52053472e-05,6.00828337,-4.79151660e-01,-1,-0.9995768869462491
1.24113014e+05,2.49999870e-01,-4.17925676e-13,3.65573360,2.77843892e-01,-4.84509847,7.50947834e-01,4.60141143e-05,6.01141309,-4.69734305e-01,-1,-0.9995514601852394
1.31353468e+05,2.49999867e-01,-4.08999254e-13,3.65564216,2.74856369e-01,-4.84509847,7.50947532e-01,4.69199945e-05,6.01426049,-4.61162682e-01,-1,-0.9995244572213207
1.38981910e+05,2.49999864e-01,-4.00896715e-13,3.65555626,2.72067273e-01,-4.84509847,7.50947204e-01,4.79054205e-05,6.01691909,-4.53161842e-01,-1,-0.9994960072727286
1.47111224e+05,2.49999861e-01,-3.93475656e-13,3.65547432,2.69425834e-01,-4.84509847,7.50946846e-01,4.89792097e-05,6.01943757,-4.45583413e-01,-1,-0.9994656893434071
1.55681831e+05,2.49999857e-01,-3.86368218e-13,3.65539332,2.66830082e-01,-4.84509847,7.50946466e-01,5.01182953e-05,6.02191294,-4.38133515e-01,-1,-0.9994337256306919
1.64723434e+05,2.49999854e-01,-3.79382050e-13,3.65531109,2.64211273e-01,-4.84509847,7.50946067e-01,5.13158062e-05,6.02441080,-4.30613008e-01,-1,-0.9994000053585131
1.74352440e+05,2.49999850e-01,-3.72264937e-13,3.65522441,2.61470614e-01,-4.84509847,7.50945649e-01,5.25703452e-05,6.02702537,-4.22742264e-01,-1,-0.9993640943919366
1.84510202e+05,2.49999846e-01,-3.64807143e-13,3.65513136,2.58544264e-01,-4.84509847,7.50945218e-01,5.38621554e-05,6.02981753,-4.14335391e-01,-1,-0.9993262114524438
1.95213235e+05,2.49999843e-01,-3.56822762e-13,3.65502961,2.55362101e-01,-4.84509847,7.50944779e-01,5.51794361e-05,6.03285446,-4.05190870e-01,-1,-0.9992862949480477
2.06567625e+05,2.49999839e-01,-3.47998966e-13,3.65491613,2.51786707e-01,-4.84509847,7.50944336e-01,5.65082300e-05,6.03626739,-3.94912671e-01,-1,-0.9992439492355425
2.18517926e+05,2.49999835e-01,-3.38250357e-13,3.65478896,2.47767722e-01,-4.84509847,7.50943896e-01,5.78284734e-05,6.04010452,-3.83355076e-01,-1,-0.9991993810984171
2.31156844e+05,2.49999830e-01,-3.27213564e-13,3.65463665,2.43120228e-01,-4.84509847,7.50943469e-01,5.91110943e-05,6.04454291,-3.69985322e-01,-1,-0.9991522447936042
2.44450206e+05,2.49999826e-01,-3.14774258e-13,3.65445864,2.37742587e-01,-4.84509847,7.50943064e-01,6.03248108e-05,6.04967974,-3.54510737e-01,-1,-0.9991026677678477
2.58423482e+05,2.49999822e-01,-3.00735157e-13,3.65425165,2.31439412e-01,-4.84509847,7.50942697e-01,6.14243916e-05,6.05570197,-3.36368891e-01,-1,-0.9990505550318707
2.73063437e+05,2.49999818e-01,-2.84998650e-13,3.65400235,2.24035831e-01,-4.84509847,7.50942386e-01,6.23583540e-05,6.06277807,-3.15049278e-01,-1,-0.9989959559450401
2.88353131e+05,2.49999814e-01,-2.67600990e-13,3.65370411,2.15377741e-01,-4.84509847,7.50942148e-01,6.30713197e-05,6.07105716,-2.90097786e-01,-1,-0.9989389336843625
3.04263798e+05,2.49999809e-01,-2.49003463e-13,3.65335782,2.05486785e-01,-4.84509847,7.50941994e-01,6.35352519e-05,6.08052194,-2.61563843e-01,-1,-0.998879595531406
3.20833788e+05,2.49999806e-01,-2.30005062e-13,3.65297124,1.94607793e-01,-4.84509847,7.50941917e-01,6.37665946e-05,6.09093863,-2.30150980e-01,-1,-0.9988177984614839
3.38179121e+05,2.49999802e-01,-2.11724911e-13,3.65255600,1.83239440e-01,-4.84509847,7.50941891e-01,6.38435150e-05,6.10182802,-1.97300917e-01,-1,-0.9987531097829618
3.56456125e+05,2.49999798e-01,-1.94891518e-13,3.65213134,1.71862750e-01,-4.84509847,7.50941886e-01,6.38578541e-05,6.11273087,-1.64398381e-01,-1,-0.9986849464772414
3.75779562e+05,2.49999794e-01,-1.79727084e-13,3.65170807,1.60706080e-01,-4.84509847,7.50941886e-01,6.38591122e-05,6.12343497,-1.32084922e-01,-1,-0.9986128805443455
3.96220024e+05,2.49999791e-01,-1.66048500e-13,3.65128978,1.49802224e-01,-4.84509847,7.50941886e-01,6.38591562e-05,6.13401151,-1.00293302e-01,-1,-0.9985366487144256
4.17843595e+05,2.49999788e-01,-1.53659609e-13,3.65087139,1.39138024e-01,-4.84509847,7.50941886e-01,6.38591568e-05,6.14424746,-6.93800409e-02,-1,-0.9984560045300264
4.40710882e+05,2.49999784e-01,-1.42403445e-13,3.65045536,1.28692187e-01,-4.84509847,7.50941886e-01,6.38591568e-05,6.15427899,-3.90784921e-02,-1,-0.9983707219599303
4.64887447e+05,2.49999781e-01,-1.32169463e-13,3.65004217,1.18447209e-01,-4.84509847,7.50941886e-01,6.38591568e-05,6.16412063,-9.33355598e-03,-1,-0.9982805564934585
4.90461882e+05,2.49999778e-01,-1.22827068e-13,3.64963218,1.08388756e-01,-4.84509847,7.50941886e-01,6.38591568e-05,6.17378751,1.98902088e-02,-1,-0.9981851777305314
5.17493072e+05,2.49999774e-01,-1.14289732e-13,3.64922626,9.84987720e-02,-4.84509847,7.50941886e-01,6.38591568e-05,6.18329532,4.86391771e-02,-1,-0.9980843660620567
5.46066633e+05,2.49999771e-01,-1.06458948e-13,3.64882185,8.87651921e-02,-4.84509847,7.50941886e-01,6.38591568e-05,6.19265582,7.69524436e-02,-1,-0.9979778021868196
5.76271425e+05,2.49999768e-01,-9.92650068e-14,3.64841983,7.91761696e-02,-4.84509847,7.50941886e-01,6.38591568e-05,6.20187834,1.04864436e-01,-1,-0.9978651547052455
6.08196567e+05,2.49999765e-01,-9.26419120e-14,3.64801845,6.97204128e-02,-4.84509847,7.50941886e-01,6.38591568e-05,6.21097610,1.32411615e-01,-1,-0.9977460912518308
6.41924884e+05,2.49999762e-01,-8.65298952e-14,3.64761908,6.03867192e-02,-4.84509847,7.50941886e-01,6.38591568e-05,6.21995997,1.59615444e-01,-1,-0.9976203029342757
6.77589801e+05,2.49999759e-01,-8.08967566e-14,3.64721728,5.11695090e-02,-4.84509847,7.50941886e-01,6.38591568e-05,6.22883386,1.86491376e-01,-1,-0.997487292149742
7.15267512e+05,2.49999756e-01,-7.56783756e-14,3.64681349,4.20597234e-02,-4.84509847,7.50941886e-01,6.38591568e-05,6.23760376,2.13065440e-01,-1,-0.9973467747359612
7.55073753e+05,2.49999753e-01,-7.08438373e-14,3.64640810,3.30499790e-02,-4.84509847,7.50941886e-01,6.38591569e-05,6.24627715,2.39360532e-01,-1,-0.9971983190604651
7.97137937e+05,2.49999751e-01,-6.63638201e-14,3.64600012,2.41342595e-02,-4.84509847,7.50941886e-01,6.38591569e-05,6.25486084,2.65392602e-01,-1,-0.997041442482998
8.41598317e+05,2.49999748e-01,-6.22024971e-14,3.64559104,1.53060154e-02,-4.84509847,7.50941886e-01,6.38591569e-05,6.26336128,2.91180340e-01,-1,-0.9968756293949017
8.88571843e+05,2.49999745e-01,-5.83326983e-14,3.64518007,6.55909609e-03,-4.84509847,7.50941886e-01,6.38591570e-05,6.27178338,3.16740424e-01,-1,-0.9967004436361467
9.38200164e+05,2.49999742e-01,-5.47308476e-14,3.64476590,-2.11135474e-03,-4.84509847,7.50941886e-01,6.38591570e-05,6.28013084,3.42083509e-01,-1,-0.9965153569328383
9.90634496e+05,2.49999739e-01,-5.13774917e-14,3.64435006,-1.07108946e-02,-4.84509847,7.50941886e-01,6.38591571e-05,6.28841025,3.67231944e-01,-1,-0.9963198053313633
1.04603800e+06,2.49999737e-01,-4.82508367e-14,3.64393708,-1.92449382e-02,-4.84509847,7.50941886e-01,6.38591573e-05,6.29662724,3.92197571e-01,-1,-0.9961131803297418
1.10457086e+06,2.49999734e-01,-4.53324835e-14,3.64351865,-2.77161468e-02,-4.84509847,7.50941886e-01,6.38591574e-05,6.30478358,4.16989648e-01,-1,-0.9958948845285879
1.16641165e+06,2.49999731e-01,-4.26067709e-14,3.64309675,-3.61280243e-02,-4.84509847,7.50941886e-01,6.38591577e-05,6.31288188,4.41612183e-01,-1,-0.9956642519437964
1.23174702e+06,2.49999729e-01,-4.00594642e-14,3.64267030,-4.44834559e-02,-4.84509847,7.50941886e-01,6.38591579e-05,6.32092284,4.66072245e-01,-1,-0.9954205864721649
1.30077672e+06,2.49999726e-01,-3.76781604e-14,3.64224277,-5.27866348e-02,-4.84509847,7.50941886e-01,6.38591583e-05,6.32891235,4.90390776e-01,-1,-0.9951631431546009
1.37370792e+06,2.49999723e-01,-3.54483757e-14,3.64181332,-6.10401420e-02,-4.84509847,7.50941886e-01,6.38591588e-05,6.33685366,5.14574569e-01,-1,-0.9948911493594383
1.45076169e+06,2.49999721e-01,-3.33620632e-14,3.64138273,-6.92467046e-02,-4.84509847,7.50941886e-01,6.38591594e-05,6.34474871,5.38622435e-01,-1,-0.9946037806155554
1.53216877e+06,2.49999718e-01,-3.14067804e-14,3.64095045,-7.74090362e-02,-4.84509847,7.50941886e-01,6.38591603e-05,6.35259867,5.62542973e-01,-1,-0.994300176387978
1.61817590e+06,2.49999715e-01,-2.95755784e-14,3.64051815,-8.55300366e-02,-4.84509847,7.50941886e-01,6.38591613e-05,6.36040549,5.86344793e-01,-1,-0.9939794164704154
1.70903831e+06,2.49999713e-01,-2.78572887e-14,3.64008481,-9.36129934e-02,-4.84509847,7.50941886e-01,6.38591627e-05,6.36817443,6.10045232e-01,-1,-0.993640548993485
1.80503363e+06,2.49999710e-01,-2.62458015e-14,3.63965339,-1.01659987e-01,-4.84509847,7.50941886e-01,6.38591645e-05,6.37590739,6.33645017e-01,-1,-0.9932825385479604
1.90645297e+06,2.49999708e-01,-2.47335505e-14,3.63922560,-1.09673420e-01,-4.84509847,7.50941886e-01,6.38591668e-05,6.38360590,6.57148305e-01,-1,-0.9929042994515316
2.01363450e+06,2.49999705e-01,-2.33148457e-14,3.63880127,-1.17655166e-01,-4.84509847,7.50941886e-01,6.38591697e-05,6.39126995,6.80562780e-01,-1,-0.9925045705136282
2.12690087e+06,2.49999703e-01,-2.19833374e-14,3.63838356,-1.25607212e-01,-4.84509847,7.50941886e-01,6.38591735e-05,6.39890335,7.03894495e-01,-1,-0.9920821484248571
2.24657416e+06,2.49999700e-01,-2.07324189e-14,3.63797231,-1.33531791e-01,-4.84509847,7.50941886e-01,6.38591784e-05,6.40650763,7.27146571e-01,-1,-0.991635832001616
2.37301913e+06,2.49999698e-01,-1.95585255e-14,3.63756915,-1.41430826e-01,-4.84509847,7.50941886e-01,6.38591847e-05,6.41408498,7.50329465e-01,-1,-0.9911642608870654
2.50661830e+06,2.49999695e-01,-1.84550016e-14,3.63717552,-1.49306562e-01,-4.84509847,7.50941886e-01,6.38591927e-05,6.42163807,7.73455045e-01,-1,-0.9906660084892047
2.64777871e+06,2.49999693e-01,-1.74167944e-14,3.63679309,-1.57161182e-01,-4.84509847,7.50941886e-01,6.38592029e-05,6.42916898,7.96528813e-01,-1,-0.9901395567697404
2.79692566e+06,2.49999690e-01,-1.64422371e-14,3.63641940,-1.64996074e-01,-4.84509847,7.50941886e-01,6.38592159e-05,6.43667879,8.19547488e-01,-1,-0.9895833195904892
2.95460247e+06,2.49999688e-01,-1.55258645e-14,3.63605648,-1.72812958e-01,-4.84509847,7.50941886e-01,6.38592326e-05,6.44416888,8.42515520e-01,-1,-0.9889952706627186
3.12121404e+06,2.49999685e-01,-1.46635063e-14,3.63570505,-1.80613688e-01,-4.84509847,7.50941886e-01,6.38592537e-05,6.45164132,8.65447546e-01,-1,-0.9883738999291741
