star_age,star_mass,star_mdot,log_Teff,log_R,log_surf_z,surface_h1,surface_he3,log_center_T,log_center_Rho,phase,x
1.78052442e+03,4.49999970e-01,-1.59853111e-11,3.68831860,8.46275727e-01,-4.84509847,7.50949395e-01,4.13306753e-05,5.71264560,-1.86166919,-1,-1.0
1.88291966e+03,4.49999968e-01,-1.57006164e-11,3.68846175,8.43488337e-01,-4.84509847,7.50949395e-01,4.13306754e-05,5.71525411,-1.85388495,-1,-0.9999990041458584
1.99111551e+03,4.49999966e-01,-1.54107598e-11,3.68860783,8.40596091e-01,-4.84509847,7.50949395e-01,4.13306754e-05,5.71796130,-1.84580623,-1,-0.9999979518773611
2.10535305e+03,4.49999965e-01,-1.51155385e-11,3.68875747,8.37598896e-01,-4.84509847,7.50949395e-01,4.13306755e-05,5.72076734,-1.83743051,-1,-0.9999968408498627
2.22587094e+03,4.49999963e-01,-1.48154444e-11,3.68891162,8.34496478e-01,-4.84509847,7.50949395e-01,4.13306756e-05,5.72367267,-1.82875890,-1,-0.9999956687422541
2.35331858e+03,4.49999961e-01,-1.45107731e-11,3.68907013,8.31282262e-01,-4.84509847,7.50949395e-01,4.13306757e-05,5.72668345,-1.81977051,-1,-0.9999944292387368
2.48826549e+03,4.49999959e-01,-1.42017798e-11,3.68923296,8.27952549e-01,-4.84509847,7.50949395e-01,4.13306758e-05,5.72980369,-1.81045503,-1,-0.9999931168003928
2.63058885e+03,4.49999957e-01,-1.38891859e-11,3.68939988,8.24514436e-01,-4.84509847,7.50949395e-01,4.13306760e-05,5.73302645,-1.80083277,-1,-0.999991732621719
2.78126180e+03,4.49999955e-01,-1.35731623e-11,3.68957117,8.20958011e-01,-4.84509847,7.50949395e-01,4.13306762e-05,5.73636127,-1.79087462,-1,-0.9999902672383546
2.94032561e+03,4.49999953e-01,-1.32543495e-11,3.68974608,8.17289401e-01,-4.84509847,7.50949395e-01,4.13306764e-05,5.73980254,-1.78059703,-1,-0.9999887202489246
3.10864454e+03,4.49999951e-01,-1.29322715e-11,3.68992549,8.13501714e-01,-4.84509847,7.50949395e-01,4.13306767e-05,5.74335672,-1.76998209,-1,-0.9999870832479902
3.28638015e+03,4.49999948e-01,-1.26095663e-11,3.69010908,8.09599766e-01,-4.84509847,7.50949395e-01,4.13306771e-05,5.74701923,-1.75904181,-1,-0.9999853546642853
3.47400945e+03,4.49999946e-01,-1.22853567e-11,3.69029588,8.05582904e-01,-4.84509847,7.50949395e-01,4.13306775e-05,5.75079094,-1.74777359,-1,-0.999983529858606
3.67280231e+03,4.49999944e-01,-1.19599742e-11,3.69048625,8.01443870e-01,-4.84509847,7.50949395e-01,4.13306781e-05,5.75467854,-1.73615699,-1,-0.9999815964807169
3.88247877e+03,4.49999941e-01,-1.16339337e-11,3.69068007,7.97191788e-01,-4.84509847,7.50949395e-01,4.13306787e-05,5.75867376,-1.72421908,-1,-0.9999795572533945
4.10383521e+03,4.49999939e-01,-1.13079444e-11,3.69087886,7.92824441e-01,-4.84509847,7.50949395e-01,4.13306796e-05,5.76277881,-1.71195052,-1,-0.9999774044313733
4.33793188e+03,4.49999936e-01,-1.09831970e-11,3.69107831,7.88338952e-01,-4.84509847,7.50949395e-01,4.13306806e-05,5.76699652,-1.69934626,-1,-0.999975127703096
4.58546855e+03,4.49999934e-01,-1.06591467e-11,3.69128056,7.83735905e-01,-4.84509847,7.50949395e-01,4.13306819e-05,5.77132675,-1.68640468,-1,-0.9999727202628867
4.84689238e+03,4.49999931e-01,-1.03369687e-11,3.69149274,7.79018558e-01,-4.84509847,7.50949395e-01,4.13306836e-05,5.77576676,-1.67313358,-1,-0.9999701777618504
5.12299963e+03,4.49999928e-01,-1.00167778e-11,3.69170054,7.74187572e-01,-4.84509847,7.50949395e-01,4.13306857e-05,5.78031562,-1.65953678,-1,-0.9999674924558885
5.41463445e+03,4.49999925e-01,-9.69843141e-12,3.69191064,7.69244205e-01,-4.84509847,7.50949395e-01,4.13306884e-05,5.78497252,-1.64561500,-1,-0.9999646561351441
5.72282433e+03,4.49999922e-01,-9.38326041e-12,3.69212383,7.64193416e-01,-4.84509847,7.50949395e-01,4.13306918e-05,5.78964293,-1.63153357,-1,-0.9999616588066707
6.04847259e+03,4.49999919e-01,-9.07338129e-12,3.69233782,7.59034990e-01,-4.84509847,7.50949395e-01,4.13306961e-05,5.79448255,-1.61703584,-1,-0.9999584916851478
6.39238240e+03,4.49999916e-01,-8.76629375e-12,3.69255356,7.53764765e-01,-4.84509847,7.50949395e-01,4.13307018e-05,5.79943249,-1.60220486,-1,-0.9999551469592736
6.75548970e+03,4.49999913e-01,-8.46323312e-12,3.69277043,7.48389403e-01,-4.84509847,7.50949395e-01,4.13307090e-05,5.80449886,-1.58704235,-1,-0.9999516155264789
7.13873997e+03,4.49999910e-01,-8.16499273e-12,3.69298465,7.42912062e-01,-4.84509847,7.50949395e-01,4.13307183e-05,5.80966560,-1.57157901,-1,-0.9999478881914128
7.54430401e+03,4.49999907e-01,-7.87077499e-12,3.69320297,7.37328577e-01,-4.84509847,7.50949395e-01,4.13307305e-05,5.81493500,-1.55580666,-1,-0.9999439438417641
7.97231603e+03,4.49999904e-01,-7.58353357e-12,3.69342786,7.31644548e-01,-4.84509847,7.50949395e-01,4.13307463e-05,5.82030548,-1.53973270,-1,-0.9999397811722613
8.42406086e+03,4.49999900e-01,-7.30139568e-12,3.69364697,7.25865878e-01,-4.84509847,7.50949395e-01,4.13307668e-05,5.82576759,-1.52338521,-1,-0.9999353876871745
8.90160651e+03,4.49999897e-01,-7.02479846e-12,3.69386564,7.19989396e-01,-4.84509847,7.50949395e-01,4.13307939e-05,5.83132626,-1.50674883,-1,-0.9999307432738858
9.40560639e+03,4.49999893e-01,-6.75433543e-12,3.69408781,7.14020802e-01,-4.84509847,7.50949395e-01,4.13308293e-05,5.83697532,-1.48984287,-1,-0.9999258415775972
9.93799907e+03,4.49999890e-01,-6.49079908e-12,3.69430768,7.07962064e-01,-4.84509847,7.50949395e-01,4.13308759e-05,5.84271229,-1.47267281,-1,-0.9999206637445716
1.05003140e+04,4.49999886e-01,-6.23338622e-12,3.69452757,7.01816607e-01,-4.84509847,7.50949395e-01,4.13309376e-05,5.84853383,-1.45524677,-1,-0.9999151949000048
1.10937339e+04,4.49999883e-01,-5.98250900e-12,3.69474309,6.95586365e-01,-4.84509847,7.50949395e-01,4.13310189e-05,5.85443840,-1.43756937,-1,-0.999909423541247
1.17209304e+04,4.49999879e-01,-5.73842254e-12,3.69495713,6.89274337e-01,-4.84509847,7.50949395e-01,4.13311271e-05,5.86042368,-1.41964717,-1,-0.9999033236851197
1.23828807e+04,4.49999876e-01,-5.50084807e-12,3.69516915,6.82882790e-01,-4.84509847,7.50949395e-01,4.13312706e-05,5.86648834,-1.40148475,-1,-0.9998968858277759
1.30813907e+04,4.49999872e-01,-5.27062028e-12,3.69538018,6.76414385e-01,-4.84509847,7.50949395e-01,4.13314609e-05,5.87263014,-1.38308971,-1,-0.9998900924057725
1.38199228e+04,4.49999868e-01,-5.04718323e-12,3.69558848,6.69871241e-01,-4.84509847,7.50949395e-01,4.13317165e-05,5.87884674,-1.36446932,-1,-0.9998829097452261
1.45994117e+04,4.49999864e-01,-4.83095969e-12,3.69579365,6.63256707e-01,-4.84509847,7.50949395e-01,4.13320577e-05,5.88513443,-1.34563195,-1,-0.9998753287556272
1.54221742e+04,4.49999860e-01,-4.62151962e-12,3.69599562,6.56575966e-01,-4.84509847,7.50949395e-01,4.13325136e-05,5.89148784,-1.32659741,-1,-0.9998673269047289
1.62909300e+04,4.49999856e-01,-4.41902280e-12,3.69619408,6.49831083e-01,-4.84509847,7.50949394e-01,4.13331247e-05,5.89790496,-1.30737152,-1,-0.9998588777418431
1.72083830e+04,4.49999853e-01,-4.22348198e-12,3.69638840,6.43023638e-01,-4.84509847,7.50949394e-01,4.13339458e-05,5.90438456,-1.28795707,-1,-0.9998499549699469
1.81769907e+04,4.49999849e-01,-4.03446831e-12,3.69657962,6.36157886e-01,-4.84509847,7.50949394e-01,4.13350488e-05,5.91092294,-1.26836505,-1,-0.9998405346884022
1.91996191e+04,4.49999845e-01,-3.85277067e-12,3.69676640,6.29236931e-01,-4.84509847,7.50949393e-01,4.13365328e-05,5.91751795,-1.24860001,-1,-0.9998305890236674
2.02793010e+04,4.49999841e-01,-3.67779245e-12,3.69694672,6.22264718e-01,-4.84509847,7.50949393e-01,4.13385314e-05,5.92416542,-1.22867539,-1,-0.9998200884799728
2.14192412e+04,4.49999837e-01,-3.50928956e-12,3.69712143,6.15245313e-01,-4.84509847,7.50949392e-01,4.13412255e-05,5.93086153,-1.20860271,-1,-0.9998090018887469
2.26228335e+04,4.49999832e-01,-3.34693238e-12,3.69728944,6.08181432e-01,-4.84509847,7.50949391e-01,4.13448595e-05,5.93760328,-1.18839135,-1,-0.9997972962432817
2.38936232e+04,4.49999828e-01,-3.19154816e-12,3.69745140,6.01078280e-01,-4.84509847,7.50949389e-01,4.13497643e-05,5.94438649,-1.16805517,-1,-0.9997849370634423
2.52353696e+04,4.49999824e-01,-3.04246246e-12,3.69760784,5.93941415e-01,-4.84509847,7.50949387e-01,4.13563859e-05,5.95120593,-1.14761022,-1,-0.9997718877878174
2.66520430e+04,4.49999820e-01,-2.89946161e-12,3.69775816,5.86775979e-01,-4.84509847,7.50949384e-01,4.13653250e-05,5.95805689,-1.12706723,-1,-0.9997581098028964
2.81478325e+04,4.49999816e-01,-2.76260337e-12,3.69790096,5.79588620e-01,-4.84509847,7.50949380e-01,4.13773885e-05,5.96493225,-1.10644886,-1,-0.9997435623672094
2.97271413e+04,4.49999812e-01,-2.63158641e-12,3.69803405,5.72387539e-01,-4.84509847,7.50949374e-01,4.13936558e-05,5.97182372,-1.08578052,-1,-0.9997282026570377
3.13948115e+04,4.49999807e-01,-2.50663024e-12,3.69816224,5.65182574e-01,-4.84509847,7.50949367e-01,4.14155708e-05,5.97872158,-1.06509190,-1,-0.9997119835801009
3.31559477e+04,4.49999803e-01,-2.38784930e-12,3.69828594,5.57986746e-01,-4.84509847,7.50949357e-01,4.14450574e-05,5.98561367,-1.04441832,-1,-0.9996948554911516
3.50162584e+04,4.49999799e-01,-2.27471328e-12,3.69839744,5.50815921e-01,-4.84509847,7.50949344e-01,4.14847130e-05,5.99248528,-1.02380288,-1,-0.999676762871658
3.69815472e+04,4.49999795e-01,-2.16733712e-12,3.69849736,5.43689323e-01,-4.84509847,7.50949326e-01,4.15379023e-05,5.99931848,-1.00330160,-1,-0.9996576492781848
3.90578417e+04,4.49999790e-01,-2.06577662e-12,3.69858821,5.36630451e-01,-4.84509847,7.50949303e-01,4.16089300e-05,6.00609056,-9.82984616e-01,-1,-0.9996374560887648
4.12519082e+04,4.49999786e-01,-1.97011279e-12,3.69866886,5.29670194e-01,-4.84509847,7.50949271e-01,4.17033539e-05,6.01277124,-9.62941587e-01,-1,-0.999616117497137
4.35712533e+04,4.49999781e-01,-1.88051297e-12,3.69874382,5.22841816e-01,-4.84509847,7.50949229e-01,4.18281773e-05,6.01932813,-9.43268823e-01,-1,-0.999593560497186
4.60236848e+04,4.49999777e-01,-1.79696340e-12,3.69880741,5.16188044e-01,-4.84509847,7.50949175e-01,4.19919610e-05,6.02571990,-9.24088582e-01,-1,-0.9995697091534487
4.86176631e+04,4.49999772e-01,-1.71950294e-12,3.69886223,5.09754771e-01,-4.84509847,7.50949104e-01,4.22048113e-05,6.03190224,-9.05534976e-01,-1,-0.999544481183542
5.13616368e+04,4.49999768e-01,-1.64826533e-12,3.69890765,5.03591101e-01,-4.84509847,7.50949013e-01,4.24779571e-05,6.03782771,-8.87748142e-01,-1,-0.9995177944198447
5.42674696e+04,4.49999763e-01,-1.58339845e-12,3.69894631,4.97753096e-01,-4.84509847,7.50948897e-01,4.28248993e-05,6.04344229,-8.70892290e-01,-1,-0.9994895334808722
5.73455797e+04,4.49999758e-01,-1.52489936e-12,3.69897899,4.92286535e-01,-4.84509847,7.50948753e-01,4.32582987e-05,6.04870179,-8.55102247e-01,-1,-0.9994595970434809
6.06022716e+04,4.49999754e-01,-1.47246361e-12,3.69900224,4.87218990e-01,-4.84509847,7.50948576e-01,4.37875187e-05,6.05357873,-8.40460843e-01,-1,-0.9994279237926875
6.40525345e+04,4.49999749e-01,-1.42581030e-12,3.69902122,4.82574362e-01,-4.84509847,7.50948364e-01,4.44233476e-05,6.05804992,-8.27039493e-01,-1,-0.9993943679496755
6.77066535e+04,4.49999744e-01,-1.38476884e-12,3.69903725,4.78346789e-01,-4.84509847,7.50948115e-01,4.51709994e-05,6.06212068,-8.14818937e-01,-1,-0.9993588294857773
7.15757411e+04,4.49999738e-01,-1.34837989e-12,3.69904692,4.74502321e-01,-4.84509847,7.50947828e-01,4.60313954e-05,6.06582331,-8.03703480e-01,-1,-0.9993212003253718
7.56737247e+04,4.49999733e-01,-1.31613913e-12,3.69905758,4.70988066e-01,-4.84509847,7.50947505e-01,4.70020376e-05,6.06920881,-7.93540789e-01,-1,-0.9992813450162743
8.00056243e+04,4.49999727e-01,-1.28696437e-12,3.69906282,4.67719104e-01,-4.84509847,7.50947148e-01,4.80726278e-05,6.07235854,-7.84085714e-01,-1,-0.9992392147360218
8.45897584e+04,4.49999722e-01,-1.26003185e-12,3.69906623,4.64618277e-01,-4.84509847,7.50946760e-01,4.92358031e-05,6.07534693,-7.75114864e-01,-1,-0.9991946313263909
8.94362289e+04,4.49999716e-01,-1.23443843e-12,3.69906926,4.61585175e-01,-4.84509847,7.50946346e-01,5.04781416e-05,6.07827072,-7.66336509e-01,-1,-0.9991474965404415
9.45647384e+04,4.49999709e-01,-1.20939466e-12,3.69907177,4.58529073e-01,-4.84509847,7.50945910e-01,5.17880322e-05,6.08121736,-7.57489176e-01,-1,-0.9990976187587608
9.99774545e+04,4.49999703e-01,-1.18393647e-12,3.69907119,4.55350852e-01,-4.84509847,7.50945456e-01,5.31475713e-05,6.08428234,-7.48286486e-01,-1,-0.9990449769001593
1.05700651e+05,4.49999696e-01,-1.15726844e-12,3.69906890,4.51950842e-01,-4.84509847,7.50944991e-01,5.45424857e-05,6.08756190,-7.38440347e-01,-1,-0.9989893154364253
1.11740895e+05,4.49999689e-01,-1.12858192e-12,3.69906404,4.48229046e-01,-4.84509847,7.50944521e-01,5.59521469e-05,6.09115283,-7.27658541e-01,-1,-0.9989305704986358
1.18106345e+05,4.49999682e-01,-1.09711956e-12,3.69905633,4.44084554e-01,-4.84509847,7.50944054e-01,5.73543935e-05,6.09515245,-7.15648067e-01,-1,-0.998868662740563
1.24824898e+05,4.49999675e-01,-1.06221519e-12,3.69904459,4.39362427e-01,-4.84509847,7.50943600e-01,5.87180388e-05,6.09971065,-7.01959867e-01,-1,-0.9988033208474175
1.31900126e+05,4.49999668e-01,-1.02293746e-12,3.69902476,4.33924251e-01,-4.84509847,7.50943170e-01,6.00058958e-05,6.10496129,-6.86190343e-01,-1,-0.9987345100793911
1.39331947e+05,4.49999661e-01,-9.78902492e-13,3.69899612,4.27612532e-01,-4.84509847,7.50942781e-01,6.11723758e-05,6.11105678,-6.67882195e-01,-1,-0.9986622312339821
1.47122249e+05,4.49999653e-01,-9.29728183e-13,3.69895359,4.20257833e-01,-4.84509847,7.50942451e-01,6.21639664e-05,6.11816133,-6.46540335e-01,-1,-0.9985864659492765
1.55259685e+05,4.49999646e-01,-8.75727362e-13,3.69889451,4.11752467e-01,-4.84509847,7.50942195e-01,6.29311953e-05,6.12638071,-6.21846697e-01,-1,-0.9985073245815459
1.63742939e+05,4.49999639e-01,-8.18099197e-13,3.69881286,4.02099835e-01,-4.84509847,7.50942024e-01,6.34434820e-05,6.13571353,-5.93804681e-01,-1,-0.9984248199296671
1.72587342e+05,4.49999632e-01,-7.59184954e-13,3.69870131,3.91521839e-01,-4.84509847,7.50941933e-01,6.37184934e-05,6.14594640,-5.63057180e-01,-1,-0.9983388028906169
1.81845351e+05,4.49999625e-01,-7.01965297e-13,3.69856195,3.80433145e-01,-4.84509847,7.50941897e-01,6.38261440e-05,6.15667895,-5.30804955e-01,-1,-0.9982487632891107
1.91581096e+05,4.49999619e-01,-6.48679046e-13,3.69840211,3.69256015e-01,-4.84509847,7.50941887e-01,6.38544854e-05,6.16750298,-4.98268639e-01,-1,-0.9981540774230497
2.01852735e+05,4.49999612e-01,-6.00063742e-13,3.69821854,3.58230591e-01,-4.84509847,7.50941886e-01,6.38588148e-05,6.17819095,-4.66141771e-01,-1,-0.9980541796715595
2.12701138e+05,4.49999606e-01,-5.55881050e-13,3.69802118,3.47424278e-01,-4.84509847,7.50941886e-01,6.38591461e-05,6.18875934,-4.34481282e-01,-1,-0.9979486725497693
2.24162009e+05,4.49999600e-01,-5.15684558e-13,3.69780515,3.36841081e-01,-4.84509847,7.50941886e-01,6.38591566e-05,6.19907174,-4.03539306e-01,-1,-0.9978372088152068
2.36269884e+05,4.49999594e-01,-4.79031837e-13,3.69757162,3.26466037e-01,-4.84509847,7.50941886e-01,6.38591568e-05,6.20913819,-3.73268310e-01,-1,-0.997719452584889
2.49054467e+05,4.49999588e-01,-4.45439907e-13,3.69732024,3.16282636e-01,-4.84509847,7.50941886e-01,6.38591568e-05,6.21902359,-3.43539976e-01,-1,-0.9975951149698854
2.62560309e+05,4.49999583e-01,-4.14722336e-13,3.69705903,3.06276911e-01,-4.84509847,7.50941886e-01,6.38591568e-05,6.22874071,-3.14316834e-01,-1,-0.9974637626854271
2.76816279e+05,4.49999577e-01,-3.86462732e-13,3.69677592,2.96436870e-01,-4.84509847,7.50941886e-01,6.38591568e-05,6.23830091,-2.85561251e-01,-1,-0.997325114963451
2.91875063e+05,4.49999571e-01,-3.60488378e-13,3.69648384,2.86749791e-01,-4.84509847,7.50941886e-01,6.38591568e-05,6.24771677,-2.57238808e-01,-1,-0.9971786594015124
3.07771396e+05,4.49999566e-01,-3.36502154e-13,3.69617211,2.77205795e-01,-4.84509847,7.50941886e-01,6.38591568e-05,6.25699700,-2.29319325e-01,-1,-0.9970240581812361
3.24551813e+05,4.49999560e-01,-3.14409596e-13,3.69584896,2.67794555e-01,-4.84509847,7.50941886e-01,6.38591568e-05,6.26615074,-2.01775420e-01,-1,-0.9968608587222825
3.42270900e+05,4.49999555e-01,-2.93975883e-13,3.69551651,2.58507744e-01,-4.84509847,7.50941886e-01,6.38591568e-05,6.27518564,-1.74586835e-01,-1,-0.9966885301435855
3.60978187e+05,4.49999550e-01,-2.75056729e-13,3.69517035,2.49337829e-01,-4.84509847,7.50941886e-01,6.38591568e-05,6.28410970,-1.47724585e-01,-1,-0.9965065907366631
3.80727825e+05,4.49999545e-01,-2.57513366e-13,3.69481190,2.40277028e-01,-4.84509847,7.50941886e-01,6.38591568e-05,6.29293022,-1.21170910e-01,-1,-0.996314513851081
4.01576067e+05,4.49999540e-01,-2.41239551e-13,3.69444360,2.31318051e-01,-4.84509847,7.50941886e-01,6.38591568e-05,6.30165460,-9.49064086e-02,-1,-0.9961117523932141
4.23584156e+05,4.49999534e-01,-2.26132995e-13,3.69406603,2.22454748e-01,-4.84509847,7.50941886e-01,6.38591568e-05,6.31028805,-6.89143184e-02,-1,-0.9958977107387426
4.46815788e+05,4.49999529e-01,-2.12075982e-13,3.69367835,2.13681988e-01,-4.84509847,7.50941886e-01,6.38591569e-05,6.31883579,-4.31765752e-02,-1,-0.9956717694064736
4.71339321e+05,4.49999524e-01,-1.98993231e-13,3.69328284,2.04993732e-01,-4.84509847,7.50941886e-01,6.38591569e-05,6.32730384,-1.76747112e-02,-1,-0.995433263574513
4.97224722e+05,4.49999519e-01,-1.86807356e-13,3.69287766,1.96385589e-01,-4.84509847,7.50941886e-01,6.38591570e-05,6.33569564,7.60191200e-03,-1,-0.995181512772492
5.24548014e+05,4.49999515e-01,-1.75444269e-13,3.69246581,1.87852544e-01,-4.84509847,7.50941886e-01,6.38591570e-05,6.34401559,3.26668390e-02,-1,-0.9949157776318676
5.53387470e+05,4.49999510e-01,-1.64840482e-13,3.69204249,1.79391618e-01,-4.84509847,7.50941886e-01,6.38591571e-05,6.35226585,5.75252213e-02,-1,-0.9946352969015189
5.83841573e+05,4.49999505e-01,-1.54938684e-13,3.69161373,1.70998506e-01,-4.84509847,7.50941886e-01,6.38591572e-05,6.36045180,8.21954086e-02,-1,-0.9943391127761472
6.15985979e+05,4.49999500e-01,-1.45691995e-13,3.69117715,1.62669287e-01,-4.84509847,7.50941886e-01,6.38591574e-05,6.36857760,1.06688558e-01,-1,-0.9940264894565011
6.49912464e+05,4.49999495e-01,-1.37040951e-13,3.69073385,1.54399936e-01,-4.84509847,7.50941886e-01,6.38591576e-05,6.37664753,1.31014532e-01,-1,-0.9936965343668154
6.85718089e+05,4.49999491e-01,-1.28944611e-13,3.69028486,1.46187319e-01,-4.84509847,7.50941886e-01,6.38591578e-05,6.38466434,1.55183145e-01,-1,-0.9933483035315808
7.23508255e+05,4.49999486e-01,-1.21362515e-13,3.68983170,1.38028478e-01,-4.84509847,7.50941886e-01,6.38591581e-05,6.39262912,1.79196583e-01,-1,-0.9929807718638656
7.63417161e+05,4.49999481e-01,-1.14271948e-13,3.68937137,1.29921531e-01,-4.84509847,7.50941886e-01,6.38591585e-05,6.40054383,2.03064364e-01,-1,-0.9925926341991919
8.05540921e+05,4.49999477e-01,-1.07624916e-13,3.68890882,1.21862633e-01,-4.84509847,7.50941886e-01,6.38591590e-05,6.40841152,2.26797737e-01,-1,-0.9921829557721843
8.49987442e+05,4.49999472e-01,-1.01383227e-13,3.68843646,1.13849806e-01,-4.84509847,7.50941886e-01,6.38591597e-05,6.41623572,2.50402278e-01,-1,-0.9917506871235822
8.96905699e+05,4.49999467e-01,-9.55272115e-14,3.68796194,1.05879733e-01,-4.84509847,7.50941886e-01,6.38591606e-05,6.42401976,2.73890068e-01,-1,-0.991294379383587
9.46450246e+05,4.49999463e-01,-9.00453028e-14,3.68748416,9.79511135e-02,-4.84509847,7.50941886e-01,6.38591617e-05,6.43176496,2.97263624e-01,-1,-0.9908125294233326
9.98728980e+05,4.49999458e-01,-8.48887309e-14,3.68700041,9.00619391e-02,-4.84509847,7.50941886e-01,6.38591631e-05,6.43947224,3.20525368e-01,-1,-0.9903040878808145
1.05390959e+06,4.49999454e-01,-8.00448018e-14,3.68651282,8.22103088e-02,-4.84509847,7.50941886e-01,6.38591649e-05,6.44714345,3.43682272e-01,-1,-0.9897674238815389
1.11216884e+06,4.49999449e-01,-7.54943986e-14,3.68602165,7.43945187e-02,-4.84509847,7.50941886e-01,6.38591672e-05,6.45478034,3.66740680e-01,-1,-0.989200818291282
1.17364901e+06,4.49999445e-01,-7.12147345e-14,3.68552775,6.66121396e-02,-4.84509847,7.50941886e-01,6.38591702e-05,6.46238534,3.89708460e-01,-1,-0.9886028873530713
1.23855913e+06,4.49999441e-01,-6.71947135e-14,3.68503133,5.88617242e-02,-4.84509847,7.50941886e-01,6.38591739e-05,6.46995995,4.12588839e-01,-1,-0.9879715981267897
1.30706927e+06,4.49999436e-01,-6.34119631e-14,3.68453327,5.11412457e-02,-4.84509847,7.50941886e-01,6.38591786e-05,6.47750596,4.35386478e-01,-1,-0.9873052965813135
