star_age,star_mass,star_mdot,log_Teff,log_R,log_surf_z,surface_h1,surface_he3,log_center_T,log_center_Rho,phase,x
3.54850216e+02,2.69999983,-5.52839116e-10,3.70099970,1.60322995,-4.84509847,7.50949395e-01,4.13306749e-05,5.71305460,-3.38997185,-1,-1.0
3.71557110e+02,2.69999982,-5.44864846e-10,3.70123543,1.60056226,-4.84509847,7.50949395e-01,4.13306749e-05,5.71564857,-3.38220378,-1,-0.999989812841931
3.89007634e+02,2.69999981,-5.36364953e-10,3.70147705,1.59782057,-4.84509847,7.50949395e-01,4.13306749e-05,5.71831472,-3.37422014,-1,-0.9999791722497074
4.07280984e+02,2.69999980,-5.27496615e-10,3.70172709,1.59499899,-4.84509847,7.50949395e-01,4.13306749e-05,5.72105864,-3.36600420,-1,-0.9999680299329549
4.26402771e+02,2.69999979,-5.18390899e-10,3.70198718,1.59209753,-4.84509847,7.50949395e-01,4.13306749e-05,5.72388039,-3.35755431,-1,-0.9999563702751675
4.46412515e+02,2.69999978,-5.09165107e-10,3.70225313,1.58911496,-4.84509847,7.50949395e-01,4.13306749e-05,5.72678133,-3.34886703,-1,-0.999944169178719
4.67371235e+02,2.69999977,-4.99837968e-10,3.70252406,1.58604911,-4.84509847,7.50949395e-01,4.13306749e-05,5.72976341,-3.33993707,-1,-0.9999313894368014
4.89264202e+02,2.69999976,-4.90390613e-10,3.70280187,1.58290396,-4.84509847,7.50949395e-01,4.13306749e-05,5.73282297,-3.33077442,-1,-0.9999180400305366
5.12243620e+02,2.69999975,-4.80844387e-10,3.70308784,1.57967016,-4.84509847,7.50949395e-01,4.13306749e-05,5.73596901,-3.32135343,-1,-0.9999040281523562
5.36237756e+02,2.69999973,-4.71233542e-10,3.70338064,1.57635673,-4.84509847,7.50949395e-01,4.13306749e-05,5.73919267,-3.31169844,-1,-0.9998893975420129
5.61356217e+02,2.69999972,-4.61571355e-10,3.70367978,1.57295853,-4.84509847,7.50949395e-01,4.13306749e-05,5.74249915,-3.30179507,-1,-0.999874081365789
5.87680618e+02,2.69999971,-4.51832786e-10,3.70398677,1.56947306,-4.84509847,7.50949395e-01,4.13306749e-05,5.74589071,-3.29163580,-1,-0.9998580298583061
6.15205442e+02,2.69999970,-4.42125175e-10,3.70430030,1.56590476,-4.84509847,7.50949395e-01,4.13306749e-05,5.74936298,-3.28123481,-1,-0.9998412463835974
6.43996272e+02,2.69999969,-4.32400131e-10,3.70462418,1.56225388,-4.84509847,7.50949395e-01,4.13306749e-05,5.75291604,-3.27059007,-1,-0.9998236909519206
6.74118383e+02,2.69999967,-4.22674402e-10,3.70495186,1.55851741,-4.84509847,7.50949395e-01,4.13306749e-05,5.75655225,-3.25969767,-1,-0.9998053237613387
7.05640260e+02,2.69999966,-4.12934117e-10,3.70528660,1.55469622,-4.84509847,7.50949395e-01,4.13306749e-05,5.76027106,-3.24855716,-1,-0.9997861030525923
7.38630283e+02,2.69999965,-4.03195815e-10,3.70562570,1.55079056,-4.84509847,7.50949395e-01,4.13306749e-05,5.76407206,-3.23717069,-1,-0.9997659871304465
7.73161118e+02,2.69999963,-3.93463161e-10,3.70597781,1.54680001,-4.84509847,7.50949395e-01,4.13306749e-05,5.76795588,-3.22553446,-1,-0.9997449316862449
8.09301024e+02,2.69999962,-3.83800196e-10,3.70633324,1.54272531,-4.84509847,7.50949395e-01,4.13306749e-05,5.77192202,-3.21365174,-1,-0.9997228950985332
8.47116493e+02,2.69999961,-3.74151225e-10,3.70669453,1.53856752,-4.84509847,7.50949395e-01,4.13306749e-05,5.77596964,-3.20152414,-1,-0.9996998368232992
8.86682056e+02,2.69999959,-3.64614836e-10,3.70706378,1.53432702,-4.84509847,7.50949395e-01,4.13306750e-05,5.78009852,-3.18915408,-1,-0.9996757114146881
9.28069562e+02,2.69999958,-3.55153239e-10,3.70744364,1.53000498,-4.84509847,7.50949395e-01,4.13306750e-05,5.78430763,-3.17654198,-1,-0.9996504750622157
9.71355875e+02,2.69999956,-3.45785092e-10,3.70782575,1.52560274,-4.84509847,7.50949395e-01,4.13306750e-05,5.78859526,-3.16369547,-1,-0.9996240808974622
1.01662297e+03,2.69999955,-3.36468883e-10,3.70821659,1.52112088,-4.84509847,7.50949395e-01,4.13306750e-05,5.79296129,-3.15061350,-1,-0.9995964789355362
1.06402032e+03,2.69999953,-3.27224629e-10,3.70861104,1.51655820,-4.84509847,7.50949395e-01,4.13306750e-05,5.79740678,-3.13729370,-1,-0.9995675780341178
1.11361633e+03,2.69999951,-3.18073565e-10,3.70901146,1.51191660,-4.84509847,7.50949395e-01,4.13306750e-05,5.80192936,-3.12374278,-1,-0.999537336482728
1.16545743e+03,2.69999950,-3.08997302e-10,3.70941910,1.50719878,-4.84509847,7.50949395e-01,4.13306751e-05,5.80652629,-3.10996703,-1,-0.999505725970315
1.21968047e+03,2.69999948,-3.00649383e-10,3.70983001,1.50240757,-4.84509847,7.50949395e-01,4.13306751e-05,5.81119497,-3.09597679,-1,-0.9994726630515305
1.27643532e+03,2.69999946,-2.91921979e-10,3.71024730,1.49754243,-4.84509847,7.50949395e-01,4.13306752e-05,5.81593609,-3.08176870,-1,-0.9994380563419809
1.33580267e+03,2.69999945,-2.83438661e-10,3.71066998,1.49260475,-4.84509847,7.50949395e-01,4.13306752e-05,5.82074803,-3.06734555,-1,-0.9994018566403136
1.39790204e+03,2.69999943,-2.74925722e-10,3.71109806,1.48759473,-4.84509847,7.50949395e-01,4.13306753e-05,5.82563134,-3.05270839,-1,-0.9993639910682823
1.46287110e+03,2.69999941,-2.66469656e-10,3.71153238,1.48251260,-4.84509847,7.50949395e-01,4.13306754e-05,5.83058549,-3.03785599,-1,-0.9993243756805379
1.53084058e+03,2.69999940,-2.58212188e-10,3.71197090,1.47735953,-4.84509847,7.50949395e-01,4.13306755e-05,5.83561000,-3.02279211,-1,-0.9992829307634499
1.60193533e+03,2.69999938,-2.50065424e-10,3.71241261,1.47213767,-4.84509847,7.50949395e-01,4.13306757e-05,5.84070198,-3.00752627,-1,-0.9992395801887632
1.67630145e+03,2.69999936,-2.42110914e-10,3.71286087,1.46684801,-4.84509847,7.50949395e-01,4.13306759e-05,5.84586083,-2.99206306,-1,-0.9991942348708712
1.75407386e+03,2.69999934,-2.34310981e-10,3.71331330,1.46149274,-4.84509847,7.50949395e-01,4.13306761e-05,5.85108400,-2.97640640,-1,-0.9991468125412581
1.83540264e+03,2.69999932,-2.26610911e-10,3.71377406,1.45607274,-4.84509847,7.50949395e-01,4.13306765e-05,5.85637055,-2.96056058,-1,-0.9990972216874813
1.92044054e+03,2.69999930,-2.19152368e-10,3.71423521,1.45059044,-4.84509847,7.50949395e-01,4.13306769e-05,5.86171881,-2.94452987,-1,-0.9990453691690444
2.00935084e+03,2.69999928,-2.11831684e-10,3.71470025,1.44504751,-4.84509847,7.50949395e-01,4.13306775e-05,5.86712772,-2.92831561,-1,-0.9989911554247025
2.10247895e+03,2.69999927,-2.04673560e-10,3.71516919,1.43944278,-4.84509847,7.50949395e-01,4.13306782e-05,5.87259853,-2.91191662,-1,-0.9989343698380316
2.19983605e+03,2.69999925,-1.97680430e-10,3.71564291,1.43378015,-4.84509847,7.50949395e-01,4.13306791e-05,5.87812715,-2.89534280,-1,-0.9988750055919401
2.30160403e+03,2.69999923,-1.90859208e-10,3.71611979,1.42806354,-4.84509847,7.50949395e-01,4.13306802e-05,5.88364413,-2.87872257,-1,-0.9988129517775911
2.40800734e+03,2.69999921,-1.84205437e-10,3.71659730,1.42229016,-4.84509847,7.50949395e-01,4.13306818e-05,5.88926064,-2.86185567,-1,-0.998748071534858
2.51943091e+03,2.69999919,-1.77692868e-10,3.71707947,1.41646165,-4.84509847,7.50949395e-01,4.13306837e-05,5.89493237,-2.84482982,-1,-0.9986801301496907
2.63584579e+03,2.69999917,-1.71407964e-10,3.71756408,1.41058510,-4.84509847,7.50949395e-01,4.13306863e-05,5.90065623,-2.82765706,-1,-0.998609145274576
2.75760718e+03,2.69999915,-1.65284083e-10,3.71805811,1.40465548,-4.84509847,7.50949395e-01,4.13306895e-05,5.90644617,-2.81029332,-1,-0.9985349003235616
2.88502639e+03,2.69999913,-1.59307414e-10,3.71855042,1.39867524,-4.84509847,7.50949395e-01,4.13306938e-05,5.91228607,-2.79277796,-1,-0.9984572054729628
3.01810360e+03,2.69999910,-1.53500325e-10,3.71904327,1.39264746,-4.84509847,7.50949395e-01,4.13306993e-05,5.91817438,-2.77511847,-1,-0.9983760606130234
3.15749470e+03,2.69999908,-1.47824559e-10,3.71953743,1.38657130,-4.84509847,7.50949395e-01,4.13307066e-05,5.92411316,-2.75730963,-1,-0.9982910658097336
3.30305032e+03,2.69999906,-1.42339576e-10,3.72003693,1.38045184,-4.84509847,7.50949395e-01,4.13307159e-05,5.93009457,-2.73937570,-1,-0.9982023121426084
3.45549220e+03,2.69999904,-1.37024537e-10,3.72053657,1.37428778,-4.84509847,7.50949395e-01,4.13307281e-05,5.93612089,-2.72130677,-1,-0.9981093595250902
3.61471027e+03,2.69999902,-1.31889569e-10,3.72103869,1.36808351,-4.84509847,7.50949395e-01,4.13307439e-05,5.94218702,-2.70311743,-1,-0.9980122750732147
3.78137292e+03,2.69999900,-1.26910149e-10,3.72154288,1.36183693,-4.84509847,7.50949395e-01,4.13307646e-05,5.94829526,-2.68480128,-1,-0.9979106512310001
3.95560098e+03,2.69999898,-1.22082605e-10,3.72205768,1.35555247,-4.84509847,7.50949395e-01,4.13307916e-05,5.95444107,-2.66637109,-1,-0.9978044143214179
4.13768911e+03,2.69999896,-1.17397555e-10,3.72256467,1.34923161,-4.84509847,7.50949395e-01,4.13308266e-05,5.96062438,-2.64782594,-1,-0.9976933846732499
4.32829099e+03,2.69999893,-1.12767960e-10,3.72307828,1.34287062,-4.84509847,7.50949395e-01,4.13308726e-05,5.96684900,-2.62915707,-1,-0.9975771637000509
4.52748845e+03,2.69999891,-1.08295824e-10,3.72358979,1.33647143,-4.84509847,7.50949395e-01,4.13309321e-05,5.97311268,-2.61037257,-1,-0.9974557015053446
4.73575919e+03,2.69999889,-1.04056123e-10,3.72410334,1.33003793,-4.84509847,7.50949395e-01,4.13310098e-05,5.97941078,-2.59148758,-1,-0.9973287068078545
4.95367895e+03,2.69999887,-9.99796003e-11,3.72461692,1.32357182,-4.84509847,7.50949395e-01,4.13311117e-05,5.98574101,-2.57250530,-1,-0.9971958285456543
5.18155005e+03,2.69999885,-9.60317628e-11,3.72513363,1.31707462,-4.84509847,7.50949395e-01,4.13312449e-05,5.99210188,-2.55342540,-1,-0.9970568823767817
5.41978078e+03,2.69999882,-9.22530329e-11,3.72565489,1.31054779,-4.84509847,7.50949395e-01,4.13314188e-05,5.99849321,-2.53425391,-1,-0.9969116193432456
5.66880877e+03,2.69999880,-8.85920292e-11,3.72617158,1.30399294,-4.84509847,7.50949395e-01,4.13316457e-05,6.00491336,-2.51499614,-1,-0.9967597725967625
5.92944215e+03,2.69999878,-8.50593989e-11,3.72669092,1.29740988,-4.84509847,7.50949395e-01,4.13319441e-05,6.01136309,-2.49565349,-1,-0.996600849373803
6.20191005e+03,2.69999876,-8.16570296e-11,3.72721367,1.29080068,-4.84509847,7.50949395e-01,4.13323337e-05,6.01784003,-2.47623133,-1,-0.9964347099605745
6.48672686e+03,2.69999873,-7.83755484e-11,3.72773682,1.28416721,-4.84509847,7.50949395e-01,4.13328421e-05,6.02434157,-2.45673273,-1,-0.9962610407037885
6.78467613e+03,2.69999871,-7.52151213e-11,3.72825936,1.27751017,-4.84509847,7.50949394e-01,4.13335087e-05,6.03086635,-2.43716352,-1,-0.9960793638277613
7.09627491e+03,2.69999869,-7.22394166e-11,3.72877940,1.27083359,-4.84509847,7.50949394e-01,4.13343824e-05,6.03741127,-2.41752967,-1,-0.9958893640572491
7.42204927e+03,2.69999867,-6.92530090e-11,3.72930278,1.26413447,-4.84509847,7.50949394e-01,4.13355224e-05,6.04397989,-2.39782357,-1,-0.9956907206169932
7.76260255e+03,2.69999864,-6.64290554e-11,3.72982441,1.25741567,-4.84509847,7.50949393e-01,4.13370088e-05,6.05056979,-2.37805918,-1,-0.9954830656157535
8.11887589e+03,2.69999862,-6.38466846e-11,3.73034616,1.25068225,-4.84509847,7.50949393e-01,4.13389628e-05,6.05717585,-2.35824803,-1,-0.9952658251861227
8.49158079e+03,2.69999860,-6.12580875e-11,3.73086730,1.24393483,-4.84509847,7.50949392e-01,4.13415282e-05,6.06379681,-2.33839190,-1,-0.9950385654854629
8.88123861e+03,2.69999857,-5.87489243e-11,3.73138983,1.23717301,-4.84509847,7.50949391e-01,4.13448750e-05,6.07043285,-2.31848547,-1,-0.9948009686104742
9.28858082e+03,2.69999855,-5.63354794e-11,3.73191001,1.23039725,-4.84509847,7.50949389e-01,4.13492349e-05,6.07708288,-2.29853526,-1,-0.9945525885416564
9.71441746e+03,2.69999853,-5.40117269e-11,3.73242930,1.22360997,-4.84509847,7.50949387e-01,4.13549079e-05,6.08374484,-2.27854831,-1,-0.994292931350843
1.01601422e+04,2.69999850,-5.17781795e-11,3.73294747,1.21681338,-4.84509847,7.50949385e-01,4.13623412e-05,6.09041654,-2.25853512,-1,-0.9940211472369527
1.06261762e+04,2.69999848,-4.96301552e-11,3.73346201,1.21001116,-4.84509847,7.50949382e-01,4.13720144e-05,6.09709516,-2.23850035,-1,-0.993736979394412
1.11134792e+04,2.69999846,-4.75820465e-11,3.73397637,1.20320594,-4.84509847,7.50949377e-01,4.13845958e-05,6.10377877,-2.21845266,-1,-0.9934398426143196
1.16229897e+04,2.69999843,-4.56122623e-11,3.73448826,1.19640261,-4.84509847,7.50949372e-01,4.14009305e-05,6.11046194,-2.19840334,-1,-0.9931291646390286
1.21557404e+04,2.69999841,-4.37229633e-11,3.73499721,1.18960559,-4.84509847,7.50949365e-01,4.14221032e-05,6.11714009,-2.17837164,-1,-0.992804315771712
1.27134344e+04,2.69999839,-4.19076773e-11,3.73550144,1.18282120,-4.84509847,7.50949356e-01,4.14496921e-05,6.12380643,-2.15837290,-1,-0.9924642575339486
1.32967164e+04,2.69999836,-4.01848823e-11,3.73600270,1.17605643,-4.84509847,7.50949344e-01,4.14854077e-05,6.13045421,-2.13842905,-1,-0.9921085968149179
1.39067506e+04,2.69999834,-3.85337535e-11,3.73649975,1.16932044,-4.84509847,7.50949328e-01,4.15315168e-05,6.13707508,-2.11856858,-1,-0.9917366237346491
1.45448016e+04,2.69999831,-3.69577771e-11,3.73699317,1.16262406,-4.84509847,7.50949309e-01,4.15908594e-05,6.14365879,-2.09881729,-1,-0.9913475671934936
1.52123073e+04,2.69999829,-3.54561735e-11,3.73747937,1.15598009,-4.84509847,7.50949283e-01,4.16670530e-05,6.15019283,-2.07921572,-1,-0.9909405504207848
1.59114703e+04,2.69999827,-3.40307756e-11,3.73795913,1.14940646,-4.84509847,7.50949250e-01,4.17651399e-05,6.15665915,-2.05981929,-1,-0.990514230364106
1.66430064e+04,2.69999824,-3.26750989e-11,3.73843068,1.14291987,-4.84509847,7.50949209e-01,4.18900251e-05,6.16304041,-2.04067928,-1,-0.990068170558861
1.74084838e+04,2.69999822,-3.14001673e-11,3.73889324,1.13654242,-4.84509847,7.50949156e-01,4.20481295e-05,6.16931426,-2.02185939,-1,-0.9896014147829485
1.82103196e+04,2.69999819,-3.01997253e-11,3.73934567,1.13030102,-4.84509847,7.50949090e-01,4.22478529e-05,6.17545510,-2.00343602,-1,-0.9891124891909148
1.90504197e+04,2.69999817,-2.90730909e-11,3.73978339,1.12422422,-4.84509847,7.50949006e-01,4.24983635e-05,6.18143489,-1.98549675,-1,-0.9886002316454672
1.99295476e+04,2.69999814,-2.80190124e-11,3.74020659,1.11833326,-4.84509847,7.50948903e-01,4.28076054e-05,6.18723248,-1.96810413,-1,-0.9880641765965646
2.08521681e+04,2.69999812,-2.70421055e-11,3.74061238,1.11267131,-4.84509847,7.50948776e-01,4.31900207e-05,6.19280554,-1.95138475,-1,-0.9875016015978119
2.18180483e+04,2.69999809,-2.61374085e-11,3.74100019,1.10725116,-4.84509847,7.50948622e-01,4.36520662e-05,6.19814129,-1.93537540,-1,-0.9869126486617885
2.28304596e+04,2.69999807,-2.53050427e-11,3.74136782,1.10210079,-4.84509847,7.50948437e-01,4.42054533e-05,6.20321242,-1.92016122,-1,-0.9862953230269964
2.38927980e+04,2.69999804,-2.45410026e-11,3.74171469,1.09723901,-4.84509847,7.50948219e-01,4.48606805e-05,6.20800013,-1.90579828,-1,-0.9856475539561216
2.50059917e+04,2.69999801,-2.38485939e-11,3.74204355,1.09266016,-4.84509847,7.50947965e-01,4.56208161e-05,6.21250973,-1.89227048,-1,-0.9849687754720222
2.61725687e+04,2.69999799,-2.32129324e-11,3.74234990,1.08835316,-4.84509847,7.50947676e-01,4.64885674e-05,6.21675154,-1.87954638,-1,-0.98425744610711
2.73946919e+04,2.69999796,-2.26292693e-11,3.74263806,1.08428977,-4.84509847,7.50947352e-01,4.74620401e-05,6.22075398,-1.86753944,-1,-0.9835122470163509
2.86738413e+04,2.69999793,-2.20874778e-11,3.74291016,1.08042689,-4.84509847,7.50946994e-01,4.85345886e-05,6.22455932,-1.85612184,-1,-0.9827322757582772
3.00176833e+04,2.69999790,-2.15844412e-11,3.74317216,1.07672096,-4.84509847,7.50946604e-01,4.97044284e-05,6.22821073,-1.84516751,-1,-0.9819128576860862
3.14229675e+04,2.69999787,-2.11055639e-11,3.74342842,1.07309249,-4.84509847,7.50946189e-01,5.09498659e-05,6.23178629,-1.83444187,-1,-0.9810559747563634
3.28915931e+04,2.69999784,-2.06401984e-11,3.74368337,1.06947762,-4.84509847,7.50945753e-01,5.22565989e-05,6.23534858,-1.82375591,-1,-0.9801604689171931
3.44332223e+04,2.69999781,-2.01782489e-11,3.74394316,1.06578822,-4.84509847,7.50945302e-01,5.36106111e-05,6.23898443,-1.81284918,-1,-0.9792204485672581
3.60406878e+04,2.69999778,-1.97095037e-11,3.74421245,1.06195945,-4.84509847,7.50944843e-01,5.49864851e-05,6.24275836,-1.80152862,-1,-0.9782402840232689
3.77253686e+04,2.69999775,-1.92227077e-11,3.74449857,1.05788449,-4.84509847,7.50944385e-01,5.63627755e-05,6.24677505,-1.78947917,-1,-0.9772130368518058
3.94844338e+04,2.69999771,-1.87085326e-11,3.74480749,1.05348666,-4.84509847,7.50943935e-01,5.77114625e-05,6.25111049,-1.77647202,-1,-0.9761404332160791
4.13198867e+04,2.69999768,-1.81587613e-11,3.74514456,1.04867689,-4.84509847,7.50943504e-01,5.90035292e-05,6.25585258,-1.76224567,-1,-0.9750212515883913
4.32349319e+04,2.69999764,-1.75674413e-11,3.74551549,1.04334969,-4.84509847,7.50943105e-01,6.02028774e-05,6.26110558,-1.74648596,-1,-0.9738535379390615
4.52303416e+04,2.69999761,-1.69269271e-11,3.74592752,1.03741230,-4.84509847,7.50942748e-01,6.12716253e-05,6.26696108,-1.72891832,-1,-0.9726368214131564
4.73044990e+04,2.69999758,-1.62377591e-11,3.74638473,1.03080338,-4.84509847,7.50942447e-01,6.21767799e-05,6.27347928,-1.70936213,-1,-0.9713720878670039
4.94492812e+04,2.69999754,-1.54902300e-11,3.74694171,1.02318565,-4.84509847,7.50942336e-01,6.25072548e-05,6.27971801,-1.68163304,-1,-0.9700642903018188
5.16601151e+04,2.69999751,-1.46811153e-11,3.74757157,1.01498806,-4.84509847,7.50942320e-01,6.25555362e-05,6.28365230,-1.64301645,-1,-0.9687162172007604
5.39738856e+04,2.69999748,-1.39505021e-11,3.74821635,1.00682047,-4.84509847,7.50942308e-01,6.25927520e-05,6.28841884,-1.60557676,-1,-0.967305377710253
5.63956861e+04,2.69999744,-1.32706611e-11,3.74885441,9.98764055e-01,-4.84509847,7.50942298e-01,6.26245328e-05,6.29420124,-1.56883173,-1,-0.9658286660901807
5.89305805e+04,2.69999741,-1.26342962e-11,3.74949535,9.90830824e-01,-4.84509847,7.50942288e-01,6.26526579e-05,6.30042305,-1.53299289,-1,-0.9642829945882812
6.15838069e+04,2.69999738,-1.20417768e-11,3.75013759,9.83029350e-01,-4.84509847,7.50942280e-01,6.26785158e-05,6.30701714,-1.49769370,-1,-0.9626651692324921
6.43619861e+04,2.69999735,-1.14868421e-11,3.75077496,9.75371495e-01,-4.84509847,7.50942272e-01,6.27025038e-05,6.31388339,-1.46279885,-1,-0.9609711529387127
6.72682848e+04,2.69999731,-1.09680740e-11,3.75141238,9.67861586e-01,-4.84509847,7.50942264e-01,6.27250527e-05,6.32096411,-1.42819748,-1,-0.9591990147870809
7.03124230e+04,2.69999728,-1.04846106e-11,3.75205285,9.60509942e-01,-4.84509847,7.50942258e-01,6.27459476e-05,6.32822396,-1.39381337,-1,-0.9573428279322818
7.34972806e+04,2.69999725,-1.00332894e-11,3.75269247,9.53320393e-01,-4.84509847,7.50942251e-01,6.27656108e-05,6.33563511,-1.35956088,-1,-0.9554008363329756
7.68327024e+04,2.69999722,-9.61251540e-12,3.75333745,9.46304453e-01,-4.84509847,7.50942245e-01,6.27840227e-05,6.34319006,-1.32538400,-1,-0.9533670370460804
8.03231253e+04,2.69999718,-9.22207500e-12,3.75398737,9.39468636e-01,-4.84509847,7.50942240e-01,6.28011374e-05,6.35087534,-1.29123574,-1,-0.9512387246374421
8.39792275e+04,2.69999715,-8.85928360e-12,3.75464374,9.32826811e-01,-4.84509847,7.50942235e-01,6.28166611e-05,6.35868409,-1.25704646,-1,-0.9490093879918712
8.78047357e+04,2.69999712,-8.52282675e-12,3.75530928,9.26387685e-01,-4.84509847,7.50942230e-01,6.28312788e-05,6.36661934,-1.22279084,-1,-0.9466767547251665
9.18134959e+04,2.69999708,-8.21196719e-12,3.75598723,9.20172512e-01,-4.84509847,7.50942226e-01,6.28441315e-05,6.37468021,-1.18840526,-1,-0.9442323821315433
9.60098272e+04,2.69999705,-7.92699605e-12,3.75667598,9.14195049e-01,-4.84509847,7.50942223e-01,6.28555977e-05,6.38286869,-1.15385358,-1,-0.9416736366063098
1.00402531e+05,2.69999702,-7.66570427e-12,3.75738215,9.08474781e-01,-4.84509847,7.50942220e-01,6.28655551e-05,6.39120127,-1.11909849,-1,-0.938995151427619
1.05007006e+05,2.69999698,-7.42876475e-12,3.75810634,9.03047052e-01,-4.84509847,7.50942215e-01,6.28832479e-05,6.39968938,-1.08409914,-1,-0.9361875371188301
1.09828142e+05,2.69999695,-7.21502460e-12,3.75884884,8.97936580e-01,-4.84509848,7.50942211e-01,6.28960285e-05,6.40833918,-1.04881718,-1,-0.9332478120865044
1.14876710e+05,2.69999691,-7.02658410e-12,3.75961881,8.93180686e-01,-4.84509848,7.50942208e-01,6.29065169e-05,6.41717457,-1.01321711,-1,-0.9301694086299335
1.20163696e+05,2.69999687,-6.86239076e-12,3.76041909,8.88823861e-01,-4.84509848,7.50942206e-01,6.29148194e-05,6.42621461,-9.77257608e-01,-1,-0.9269456279504928
