star_age,star_mass,star_mdot,log_Teff,log_R,log_surf_z,surface_h1,surface_he3,log_center_T,log_center_Rho,phase,x
3.33543431e+02,2.99999981,-6.66859253e-10,3.70049921,1.64673729,-4.84509847,7.50949395e-01,4.13306749e-05,5.71356301,-3.47706840,-1,-1.0
3.49003563e+02,2.99999980,-6.57608427e-10,3.70073943,1.64404412,-4.84509847,7.50949395e-01,4.13306749e-05,5.71618887,-3.46920394,-1,-0.9999881458024701
3.65154017e+02,2.99999979,-6.47896273e-10,3.70098625,1.64127845,-4.84509847,7.50949395e-01,4.13306749e-05,5.71888588,-3.46112732,-1,-0.9999757622942366
3.82041738e+02,2.99999977,-6.37450976e-10,3.70123985,1.63843678,-4.84509847,7.50949395e-01,4.13306749e-05,5.72165692,-3.45282625,-1,-0.9999628134797915
3.99735508e+02,2.99999976,-6.26561432e-10,3.70150102,1.63551413,-4.84509847,7.50949395e-01,4.13306749e-05,5.72450726,-3.44428884,-1,-0.9999492466199078
4.18191726e+02,2.99999975,-6.15415290e-10,3.70176885,1.63251703,-4.84509847,7.50949395e-01,4.13306749e-05,5.72743027,-3.43553384,-1,-0.9999350951460507
4.37543010e+02,2.99999974,-6.04077586e-10,3.70204349,1.62943541,-4.84509847,7.50949395e-01,4.13306749e-05,5.73043600,-3.42653085,-1,-0.9999202573721563
4.57766530e+02,2.99999973,-5.92599547e-10,3.70233205,1.62627423,-4.84509847,7.50949395e-01,4.13306749e-05,5.73351924,-3.41729527,-1,-0.999904750803336
4.78888062e+02,2.99999972,-5.80975418e-10,3.70261954,1.62303405,-4.84509847,7.50949395e-01,4.13306749e-05,5.73667976,-3.40782826,-1,-0.9998885556756061
5.01013876e+02,2.99999970,-5.69415248e-10,3.70291548,1.61970927,-4.84509847,7.50949395e-01,4.13306749e-05,5.73992264,-3.39811417,-1,-0.9998715905054727
5.24160506e+02,2.99999969,-5.57762689e-10,3.70322067,1.61630197,-4.84509847,7.50949395e-01,4.13306749e-05,5.74324611,-3.38815913,-1,-0.99985384261534
5.48351371e+02,2.99999968,-5.46056936e-10,3.70353092,1.61281361,-4.84509847,7.50949395e-01,4.13306749e-05,5.74664867,-3.37796553,-1,-0.999835294048476
5.73641790e+02,2.99999966,-5.34313087e-10,3.70384812,1.60924331,-4.84509847,7.50949395e-01,4.13306749e-05,5.75013147,-3.36753225,-1,-0.9998159023885317
6.00087953e+02,2.99999965,-5.22552993e-10,3.70417224,1.60559082,-4.84509847,7.50949395e-01,4.13306749e-05,5.75369427,-3.35685783,-1,-0.9997956245513108
6.27746489e+02,2.99999964,-5.10791506e-10,3.70450329,1.60185572,-4.84509847,7.50949395e-01,4.13306749e-05,5.75733818,-3.34593959,-1,-0.99977441711601
6.56674445e+02,2.99999962,-4.99042590e-10,3.70484085,1.59803814,-4.84509847,7.50949395e-01,4.13306749e-05,5.76106248,-3.33478091,-1,-0.9997522363413207
6.86930497e+02,2.99999961,-4.87200493e-10,3.70518455,1.59413814,-4.84509847,7.50949395e-01,4.13306749e-05,5.76486741,-3.32338108,-1,-0.9997290372368834
7.18574544e+02,2.99999959,-4.75562072e-10,3.70553989,1.59015579,-4.84509847,7.50949395e-01,4.13306749e-05,5.76875301,-3.31173905,-1,-0.9997047738745924
7.51657694e+02,2.99999958,-4.64030006e-10,3.70589714,1.58609310,-4.84509847,7.50949395e-01,4.13306749e-05,5.77271699,-3.29985987,-1,-0.9996794070669215
7.86252046e+02,2.99999956,-4.52744299e-10,3.70626071,1.58195075,-4.84509847,7.50949395e-01,4.13306749e-05,5.77675872,-3.28774556,-1,-0.9996528815313035
8.22411956e+02,2.99999954,-4.41437949e-10,3.70663467,1.57773022,-4.84509847,7.50949395e-01,4.13306749e-05,5.78087745,-3.27540269,-1,-0.9996251555897784
8.60215483e+02,2.99999953,-4.29774984e-10,3.70701302,1.57342941,-4.84509847,7.50949395e-01,4.13306750e-05,5.78507466,-3.26282410,-1,-0.9995961693898944
8.99727467e+02,2.99999951,-4.18360154e-10,3.70739801,1.56904985,-4.84509847,7.50949395e-01,4.13306750e-05,5.78934916,-3.25001591,-1,-0.9995658732149889
9.41054774e+02,2.99999949,-4.07048719e-10,3.70779013,1.56459101,-4.84509847,7.50949395e-01,4.13306750e-05,5.79370155,-3.23697393,-1,-0.9995341851245796
9.84289933e+02,2.99999948,-3.95948149e-10,3.70818961,1.56005366,-4.84509847,7.50949395e-01,4.13306750e-05,5.79813145,-3.22369771,-1,-0.99950103417121
1.02944262e+03,2.99999946,-3.84985754e-10,3.70859203,1.55544208,-4.84509847,7.50949395e-01,4.13306750e-05,5.80263414,-3.21020364,-1,-0.9994664129357184
1.07668423e+03,2.99999944,-3.74131110e-10,3.70900114,1.55075410,-4.84509847,7.50949395e-01,4.13306750e-05,5.80721215,-3.19648213,-1,-0.999430189999422
1.12606057e+03,2.99999942,-3.63407134e-10,3.70941658,1.54599258,-4.84509847,7.50949395e-01,4.13306751e-05,5.81186201,-3.18254478,-1,-0.9993923302393849
1.17766784e+03,2.99999940,-3.52830538e-10,3.70983786,1.54115846,-4.84509847,7.50949395e-01,4.13306751e-05,5.81658315,-3.16839503,-1,-0.9993527598933777
1.23166479e+03,2.99999939,-3.42952455e-10,3.71026714,1.53625406,-4.84509847,7.50949395e-01,4.13306751e-05,5.82137280,-3.15403818,-1,-0.9993113572383867
1.28808432e+03,2.99999937,-3.33285228e-10,3.71069799,1.53128431,-4.84509847,7.50949395e-01,4.13306752e-05,5.82622644,-3.13948871,-1,-0.9992680970480362
1.34705690e+03,2.99999935,-3.23321396e-10,3.71113366,1.52624702,-4.84509847,7.50949395e-01,4.13306753e-05,5.83114659,-3.12473938,-1,-0.9992228792832613
1.40869546e+03,2.99999933,-3.13354075e-10,3.71157322,1.52114203,-4.84509847,7.50949395e-01,4.13306754e-05,5.83613357,-3.10978766,-1,-0.9991756173539519
1.47312744e+03,2.99999931,-3.03611267e-10,3.71201892,1.51597009,-4.84509847,7.50949395e-01,4.13306755e-05,5.84118706,-3.09463867,-1,-0.9991262135443233
1.54047532e+03,2.99999929,-2.94079455e-10,3.71246817,1.51073310,-4.84509847,7.50949395e-01,4.13306756e-05,5.84630527,-3.07929549,-1,-0.9990745739417158
1.61086664e+03,2.99999927,-2.84704234e-10,3.71292212,1.50543245,-4.84509847,7.50949395e-01,4.13306758e-05,5.85148656,-3.06376524,-1,-0.9990206007536688
1.68443401e+03,2.99999925,-2.75506606e-10,3.71338065,1.50006951,-4.84509847,7.50949395e-01,4.13306761e-05,5.85672919,-3.04805068,-1,-0.9989641923002524
1.76131130e+03,2.99999923,-2.66460507e-10,3.71384460,1.49464542,-4.84509847,7.50949395e-01,4.13306764e-05,5.86203186,-3.03215524,-1,-0.9989052459354205
1.84175875e+03,2.99999921,-2.57689602e-10,3.71431518,1.48916121,-4.84509847,7.50949395e-01,4.13306768e-05,5.86739362,-3.01607991,-1,-0.9988435621177743
1.92582774e+03,2.99999919,-2.49110230e-10,3.71478551,1.48361840,-4.84509847,7.50949395e-01,4.13306773e-05,5.87281309,-2.99983044,-1,-0.998779101451229
2.01367025e+03,2.99999916,-2.40707606e-10,3.71525624,1.47801962,-4.84509847,7.50949395e-01,4.13306780e-05,5.87828776,-2.98341766,-1,-0.9987117474037306
2.10545054e+03,2.99999914,-2.32501446e-10,3.71573382,1.47236612,-4.84509847,7.50949395e-01,4.13306789e-05,5.88381688,-2.96683528,-1,-0.9986413740274225
2.20134066e+03,2.99999912,-2.24504006e-10,3.71621394,1.46666179,-4.84509847,7.50949395e-01,4.13306800e-05,5.88928346,-2.95030109,-1,-0.9985678494013944
2.30169973e+03,2.99999910,-2.16694435e-10,3.71670060,1.46090315,-4.84509847,7.50949395e-01,4.13306814e-05,5.89485995,-2.93351351,-1,-0.9984908981671039
2.40654396e+03,2.99999908,-2.09114141e-10,3.71718815,1.45509275,-4.84509847,7.50949395e-01,4.13306833e-05,5.90053368,-2.91648698,-1,-0.9984105078953851
2.51603998e+03,2.99999905,-2.01727677e-10,3.71768201,1.44923339,-4.84509847,7.50949395e-01,4.13306857e-05,5.90626730,-2.89929491,-1,-0.9983265508211625
2.63053886e+03,2.99999903,-1.94553182e-10,3.71817390,1.44332604,-4.84509847,7.50949395e-01,4.13306888e-05,5.91204300,-2.88197196,-1,-0.9982387577583045
2.75024474e+03,2.99999901,-1.87563628e-10,3.71866764,1.43737182,-4.84509847,7.50949395e-01,4.13306929e-05,5.91786749,-2.86450554,-1,-0.9981469721806
2.87522113e+03,2.99999899,-1.80744920e-10,3.71916641,1.43137254,-4.84509847,7.50949395e-01,4.13306980e-05,5.92374003,-2.84689353,-1,-0.998051145391176
3.00597942e+03,2.99999896,-1.74164127e-10,3.71966474,1.42532837,-4.84509847,7.50949395e-01,4.13307048e-05,5.92965693,-2.82915142,-1,-0.9979508852770755
3.14256374e+03,2.99999894,-1.67777592e-10,3.72016678,1.41924324,-4.84509847,7.50949395e-01,4.13307136e-05,5.93561613,-2.81128688,-1,-0.9978461580012176
3.28527918e+03,2.99999892,-1.61570190e-10,3.72067148,1.41311801,-4.84509847,7.50949395e-01,4.13307250e-05,5.94161623,-2.79329858,-1,-0.997736729633056
3.43451803e+03,2.99999889,-1.55513449e-10,3.72117715,1.40695204,-4.84509847,7.50949395e-01,4.13307398e-05,5.94765606,-2.77518655,-1,-0.9976222993806473
3.59038672e+03,2.99999887,-1.49677951e-10,3.72169122,1.40074790,-4.84509847,7.50949395e-01,4.13307590e-05,5.95373366,-2.75696105,-1,-0.9975027856378162
3.75336755e+03,2.99999885,-1.44020886e-10,3.72220197,1.39450599,-4.84509847,7.50949395e-01,4.13307841e-05,5.95984853,-2.73862124,-1,-0.997377818596629
3.92365592e+03,2.99999882,-1.38570031e-10,3.72271420,1.38822847,-4.84509847,7.50949395e-01,4.13308167e-05,5.96599896,-2.72017284,-1,-0.9972472484323497
4.10156386e+03,2.99999880,-1.33287692e-10,3.72322799,1.38191735,-4.84509847,7.50949395e-01,4.13308591e-05,5.97218361,-2.70162135,-1,-0.9971108358931234
4.28762793e+03,2.99999877,-1.28175758e-10,3.72374470,1.37557248,-4.84509847,7.50949395e-01,4.13309145e-05,5.97840277,-2.68296863,-1,-0.9969681695666656
4.48188677e+03,2.99999875,-1.23232159e-10,3.72426067,1.36919640,-4.84509847,7.50949395e-01,4.13309862e-05,5.98465400,-2.66422113,-1,-0.9968192198254031
4.68507401e+03,2.99999873,-1.18465550e-10,3.72477819,1.36278941,-4.84509847,7.50949395e-01,4.13310802e-05,5.99093607,-2.64538001,-1,-0.9966634241518273
4.89736788e+03,2.99999870,-1.13856086e-10,3.72529701,1.35635327,-4.84509847,7.50949395e-01,4.13312026e-05,5.99724748,-2.62644999,-1,-0.9965006458864566
5.11905696e+03,2.99999868,-1.09398157e-10,3.72581480,1.34988956,-4.84509847,7.50949395e-01,4.13313614e-05,6.00358635,-2.60743422,-1,-0.9963306637579381
5.35099847e+03,2.99999865,-1.05107778e-10,3.72633601,1.34339845,-4.84509847,7.50949395e-01,4.13315697e-05,6.00995321,-2.58833762,-1,-0.9961528204850012
5.59329725e+03,2.99999863,-1.00973591e-10,3.72685974,1.33688180,-4.84509847,7.50949395e-01,4.13318409e-05,6.01634606,-2.56916239,-1,-0.9959670356806174
5.84635451e+03,2.99999860,-9.69687434e-11,3.72738157,1.33034065,-4.84509847,7.50949395e-01,4.13321930e-05,6.02276483,-2.54991108,-1,-0.9957730017133518
6.11098898e+03,2.99999858,-9.31161377e-11,3.72790260,1.32377561,-4.84509847,7.50949395e-01,4.13326539e-05,6.02920873,-2.53058375,-1,-0.9955700908144931
6.38755915e+03,2.99999855,-8.93905315e-11,3.72842721,1.31718728,-4.84509847,7.50949394e-01,4.13332548e-05,6.03567716,-2.51118396,-1,-0.9953580281085569
6.67647811e+03,2.99999853,-8.58240272e-11,3.72895039,1.31057856,-4.84509847,7.50949394e-01,4.13340367e-05,6.04216549,-2.49172227,-1,-0.9951364968550096
6.97829097e+03,2.99999850,-8.23782487e-11,3.72947371,1.30395059,-4.84509847,7.50949394e-01,4.13350526e-05,6.04867320,-2.47220291,-1,-0.994905079085776
7.29395741e+03,2.99999848,-7.90593111e-11,3.72999444,1.29730385,-4.84509847,7.50949393e-01,4.13363827e-05,6.05519999,-2.45262342,-1,-0.9946630389574438
7.62383144e+03,2.99999845,-7.58683939e-11,3.73052278,1.29063906,-4.84509847,7.50949393e-01,4.13381012e-05,6.06171292,-2.43295329,-1,-0.9944101050296096
7.96843494e+03,2.99999843,-7.27969830e-11,3.73104668,1.28395803,-4.84509847,7.50949392e-01,4.13402296e-05,6.06818178,-2.41315946,-1,-0.9941458771460128
8.32844769e+03,2.99999840,-6.98586161e-11,3.73157094,1.27726323,-4.84509847,7.50949391e-01,4.13427348e-05,6.07460972,-2.39324743,-1,-0.9938698340791248
8.70485368e+03,2.99999837,-6.70228847e-11,3.73209612,1.27055653,-4.84509847,7.50949390e-01,4.13456627e-05,6.08100422,-2.37322283,-1,-0.9935812213456184
9.09827994e+03,2.99999835,-6.42859905e-11,3.73261776,1.26383998,-4.84509847,7.50949389e-01,4.13490820e-05,6.08736505,-2.35309182,-1,-0.9932795581645097
9.50931775e+03,2.99999832,-6.16726985e-11,3.73313996,1.25711712,-4.84509847,7.50949388e-01,4.13530529e-05,6.09369977,-2.33286918,-1,-0.9929643911664539
9.93871656e+03,2.99999830,-5.91552562e-11,3.73366142,1.25039006,-4.84509847,7.50949386e-01,4.13575863e-05,6.10001310,-2.31256168,-1,-0.9926351457038126
1.03876962e+04,2.99999827,-5.67294184e-11,3.73418330,1.24366106,-4.84509847,7.50949385e-01,4.13627855e-05,6.10631313,-2.29218353,-1,-0.9922908864607833
1.08570757e+04,2.99999825,-5.44212359e-11,3.73470137,1.23693459,-4.84509847,7.50949383e-01,4.13687575e-05,6.11260153,-2.27175894,-1,-0.9919309854386269
1.13475032e+04,2.99999822,-5.22002212e-11,3.73521749,1.23021457,-4.84509847,7.50949380e-01,4.13755333e-05,6.11888230,-2.25130507,-1,-0.9915549456700736
1.18599437e+04,2.99999819,-5.00714133e-11,3.73573327,1.22350485,-4.84509847,7.50949378e-01,4.13831898e-05,6.12516498,-2.23085421,-1,-0.9911620272325525
1.23956487e+04,2.99999817,-4.80275460e-11,3.73624190,1.21681109,-4.84509847,7.50949375e-01,4.13920401e-05,6.13145238,-2.21043397,-1,-0.9907512705269991
1.29559903e+04,2.99999814,-4.60821328e-11,3.73675040,1.21013927,-4.84509847,7.50949372e-01,4.14021112e-05,6.13774847,-2.19008235,-1,-0.990321623483196
1.35415777e+04,2.99999812,-4.42186830e-11,3.73725279,1.20349545,-4.84509847,7.50949368e-01,4.14136006e-05,6.14405350,-2.16983715,-1,-0.9898726189914745
1.41535664e+04,2.99999809,-4.24375163e-11,3.73775072,1.19688623,-4.84509847,7.50949363e-01,4.14269054e-05,6.15037255,-2.14971775,-1,-0.9894033710616474
1.47935208e+04,2.99999806,-4.07362832e-11,3.73824480,1.19031937,-4.84509847,7.50949358e-01,4.14423088e-05,6.15671254,-2.12972557,-1,-0.988912680175715
1.54631383e+04,2.99999804,-3.91195726e-11,3.73873184,1.18380429,-4.84509847,7.50949352e-01,4.14604162e-05,6.16301186,-2.10999120,-1,-0.9883992448367113
1.61630870e+04,2.99999801,-3.75791318e-11,3.73921254,1.17734864,-4.84509847,7.50949345e-01,4.14809400e-05,6.16925534,-2.09046823,-1,-0.9878625527728544
1.68945972e+04,2.99999798,-3.61119878e-11,3.73968503,1.17095917,-4.84509847,7.50949337e-01,4.15045019e-05,6.17543428,-2.07106811,-1,-0.9873016606403733
1.76607112e+04,2.99999796,-3.47176864e-11,3.74015166,1.16464782,-4.84509847,7.50949328e-01,4.15324076e-05,6.18142934,-2.05187014,-1,-0.9867142357279338
1.84614986e+04,2.99999793,-3.33966629e-11,3.74061090,1.15841640,-4.84509847,7.50949317e-01,4.15656986e-05,6.18721870,-2.03272221,-1,-0.9861002246690996
1.92986838e+04,2.99999790,-3.21403871e-11,3.74106311,1.15226895,-4.84509847,7.50949304e-01,4.16053056e-05,6.19274128,-2.01350936,-1,-0.9854583052644084
2.01751637e+04,2.99999787,-3.09488582e-11,3.74151057,1.14620890,-4.84509847,7.50949288e-01,4.16517917e-05,6.19794183,-1.99412603,-1,-0.9847862562893047
2.10905072e+04,2.99999785,-2.98162946e-11,3.74195204,1.14022992,-4.84509847,7.50949270e-01,4.17073979e-05,6.20282820,-1.97445104,-1,-0.9840844082936545
2.20493138e+04,2.99999782,-2.87360794e-11,3.74238500,1.13433345,-4.84509847,7.50949248e-01,4.17726795e-05,6.20738495,-1.95439758,-1,-0.9833492345687892
2.30503159e+04,2.99999779,-2.77125667e-11,3.74281529,1.12850740,-4.84509847,7.50949223e-01,4.18494091e-05,6.21171154,-1.93391144,-1,-0.9825817070585959
2.40986365e+04,2.99999776,-2.67334107e-11,3.74324468,1.12274964,-4.84509847,7.50949193e-01,4.19371640e-05,6.21588298,-1.91298986,-1,-0.9817778976559958
2.51928891e+04,2.99999773,-2.58016452e-11,3.74367437,1.11704749,-4.84509847,7.50949162e-01,4.20320371e-05,6.22000664,-1.89161386,-1,-0.9809388694725378
2.63390892e+04,2.99999771,-2.49108797e-11,3.74410657,1.11139904,-4.84509847,7.50949127e-01,4.21368723e-05,6.22413812,-1.86982903,-1,-0.9800600100686101
2.75355684e+04,2.99999768,-2.40541740e-11,3.74453609,1.10579547,-4.84509847,7.50949091e-01,4.22447978e-05,6.22833536,-1.84767780,-1,-0.9791425987051633
2.87881958e+04,2.99999765,-2.32389702e-11,3.74497136,1.10023562,-4.84509847,7.50949054e-01,4.23548262e-05,6.23263457,-1.82518605,-1,-0.9781821351961237
3.00963957e+04,2.99999762,-2.24567565e-11,3.74540686,1.09471558,-4.84509847,7.50949017e-01,4.24668282e-05,6.23704667,-1.80238028,-1,-0.9771790609647288
3.14653916e+04,2.99999759,-2.17068114e-11,3.74584541,1.08923465,-4.84509847,7.50948979e-01,4.25792552e-05,6.24158970,-1.77926178,-1,-0.9761293708446063
3.28956390e+04,2.99999756,-2.09870236e-11,3.74628794,1.08378830,-4.84509847,7.50948943e-01,4.26881636e-05,6.24626415,-1.75583620,-1,-0.9750327155769675
3.43918334e+04,2.99999753,-2.02965447e-11,3.74673544,1.07837415,-4.84509847,7.50948907e-01,4.27952187e-05,6.25107498,-1.73206923,-1,-0.9738854948442665
3.59549949e+04,2.99999749,-1.96336432e-11,3.74718836,1.07298923,-4.84509847,7.50948873e-01,4.28988745e-05,6.25607963,-1.70785089,-1,-0.9726869264755036
3.75902688e+04,2.99999746,-1.89972855e-11,3.74764779,1.06763138,-4.84509847,7.50948840e-01,4.29973883e-05,6.26120483,-1.68330869,-1,-0.9714330652648716
3.92983406e+04,2.99999743,-1.83841083e-11,3.74811394,1.06229759,-4.84509847,7.50948809e-01,4.30901319e-05,6.26646915,-1.65844527,-1,-0.9701233855989793
4.10859985e+04,2.99999740,-1.77978038e-11,3.74858839,1.05698825,-4.84509847,7.50948780e-01,4.31772258e-05,6.27191199,-1.63322259,-1,-0.9687526825634267
4.29524937e+04,2.99999737,-1.72326316e-11,3.74907146,1.05170318,-4.84509847,7.50948753e-01,4.32589960e-05,6.27753183,-1.60762412,-1,-0.9673215303074586
4.49060901e+04,2.99999733,-1.66903972e-11,3.74956626,1.04644630,-4.84509847,7.50948728e-01,4.33356185e-05,6.28334377,-1.58161892,-1,-0.9658235924102107
4.69471376e+04,2.99999730,-1.61677624e-11,3.75006906,1.04122058,-4.84509847,7.50948704e-01,4.34075919e-05,6.28933805,-1.55521081,-1,-0.9642586005826597
4.90798434e+04,2.99999727,-1.56706074e-11,3.75058220,1.03603319,-4.84509847,7.50948682e-01,4.34729298e-05,6.29551219,-1.52838099,-1,-0.9626233289157482
5.13120678e+04,2.99999723,-1.51938425e-11,3.75110709,1.03089263,-4.84509847,7.50948662e-01,4.35330543e-05,6.30187052,-1.50110985,-1,-0.9609117504526012
5.36442842e+04,2.99999720,-1.47377909e-11,3.75164412,1.02580710,-4.84509847,7.50948644e-01,4.35876248e-05,6.30840972,-1.47340438,-1,-0.9591235022094415
5.60814147e+04,2.99999716,-1.43033868e-11,3.75219650,1.02078673,-4.84509847,7.50948628e-01,4.36361565e-05,6.31513430,-1.44525429,-1,-0.957254810121102
5.86326247e+04,2.99999713,-1.38913520e-11,3.75276273,1.01584751,-4.84509847,7.50948614e-01,4.36797072e-05,6.32205555,-1.41663509,-1,-0.9552986465333528
6.12992965e+04,2.99999709,-1.35010092e-11,3.75334170,1.01100290,-4.84509847,7.50948601e-01,4.37178111e-05,6.32916536,-1.38755017,-1,-0.9532539515550338
6.40869003e+04,2.99999705,-1.31328305e-11,3.75393652,1.00627019,-4.84509847,7.50948590e-01,4.37511010e-05,6.33647015,-1.35798448,-1,-0.9511165308602925
6.70014468e+04,2.99999702,-1.27877224e-11,3.75455357,1.00166921,-4.84509847,7.50948581e-01,4.37790415e-05,6.34398144,-1.32792866,-1,-0.9488817756899608
7.00517891e+04,2.99999698,-1.24674835e-11,3.75518538,9.97227408e-01,-4.84509847,7.50948574e-01,4.38024655e-05,6.35170839,-1.29736051,-1,-0.9465428978486891
7.32421955e+04,2.99999694,-1.21725166e-11,3.75583880,9.92971159e-01,-4.84509847,7.50948568e-01,4.38220727e-05,6.35965113,-1.26626458,-1,-0.9440966245784362
7.65786287e+04,2.99999690,-1.19037660e-11,3.75651519,9.88932497e-01,-4.84509847,7.50948563e-01,4.38380253e-05,6.36782122,-1.23462182,-1,-0.9415383839244731
8.00678856e+04,2.99999686,-1.16625668e-11,3.75721562,9.85150140e-01,-4.84509847,7.50948559e-01,4.38505900e-05,6.37622786,-1.20241179,-1,-0.9388629643015951
8.37170415e+04,2.99999682,-1.14526097e-11,3.75794704,9.81670098e-01,-4.84509848,7.50948556e-01,4.38602785e-05,6.38488127,-1.16960175,-1,-0.9360649406588532
8.75329903e+04,2.99999677,-1.12756280e-11,3.75871146,9.78545996e-01,-4.84509848,7.50948552e-01,4.38727275e-05,6.39379324,-1.13616181,-1,-0.9331390270354059
9.15261732e+04,2.99999673,-1.11363537e-11,3.75951455,9.75852421e-01,-4.84509848,7.50948550e-01,4.38820364e-05,6.40299702,-1.10205193,-1,-0.9300772175457117
9.56996361e+04,2.99999668,-1.10389067e-11,3.76036173,9.73661678e-01,-4.84509848,7.50948548e-01,4.38883306e-05,6.41250636,-1.06725977,-1,-0.9268771767181038
1.00058728e+05,2.99999663,-1.09898202e-11,3.76126035,9.72067922e-01,-4.84509848,7.50948548e-01,4.38922984e-05,6.42233853,-1.03175102,-1,-0.9235348031579373
1.04607459e+05,2.99999658,-1.09986852e-11,3.76221985,9.71186249e-01,-4.84509848,7.50948548e-01,4.38946386e-05,6.43251563,-9.95494880e-01,-1,-0.9200470220843817
