star_age,star_mass,star_mdot,log_Teff,log_R,log_surf_z,surface_h1,surface_he3,log_center_T,log_center_Rho,phase,x
5.94118236e+01,5.49992377e+01,-1.63628659e-05,3.90845370,2.51266046,-4.84509848,7.50949397e-01,4.13306748e-05,6.22981149,-3.70555866,-1,-1.0
6.16301221e+01,5.49992007e+01,-1.64258432e-05,3.90963972,2.51114195,-4.84509848,7.50949397e-01,4.13306748e-05,6.23191374,-3.69936292,-1,-0.9999090973053848
6.38484205e+01,5.49991637e+01,-1.64888205e-05,3.91082574,2.50962344,-4.84509848,7.50949397e-01,4.13306748e-05,6.23401599,-3.69316718,-1,-0.9998181946148675
6.60667190e+01,5.49991266e+01,-1.65517978e-05,3.91201176,2.50810493,-4.84509848,7.50949397e-01,4.13306748e-05,6.23611824,-3.68697145,-1,-0.9997272919202523
6.82850175e+01,5.49990896e+01,-1.66147751e-05,3.91319779,2.50658642,-4.84509848,7.50949397e-01,4.13306748e-05,6.23822050,-3.68077571,-1,-0.9996363892256371
7.05033159e+01,5.49990526e+01,-1.66777524e-05,3.91438381,2.50506790,-4.84509848,7.50949397e-01,4.13306747e-05,6.24032275,-3.67457997,-1,-0.9995454865351199
7.31149179e+01,5.49990086e+01,-1.67182066e-05,3.91580323,2.50300902,-4.84509848,7.50949397e-01,4.13306747e-05,6.24276514,-3.66739538,-1,-0.9994384668265178
7.57449528e+01,5.49989642e+01,-1.67576053e-05,3.91723359,2.50092482,-4.84509848,7.50949397e-01,4.13306747e-05,6.24522346,-3.66016445,-1,-0.9993306917640806
7.83749876e+01,5.49989198e+01,-1.67970040e-05,3.91866395,2.49884061,-4.84509848,7.50949397e-01,4.13306747e-05,6.24768179,-3.65293352,-1,-0.9992229167057411
8.10050225e+01,5.49988754e+01,-1.68364027e-05,3.92009431,2.49675641,-4.84509848,7.50949397e-01,4.13306747e-05,6.25014012,-3.64570258,-1,-0.999115141643304
8.36350574e+01,5.49988310e+01,-1.68758014e-05,3.92152467,2.49467220,-4.84509849,7.50949397e-01,4.13306747e-05,6.25259844,-3.63847165,-1,-0.9990073665808668
8.66139186e+01,5.49987805e+01,-1.68978505e-05,3.92315610,2.49214774,-4.84509849,7.50949397e-01,4.13306747e-05,6.25534844,-3.63039166,-1,-0.998885297116381
8.96547098e+01,5.49987290e+01,-1.69168195e-05,3.92482324,2.48954512,-4.84509849,7.50949397e-01,4.13306747e-05,6.25815023,-3.62216094,-1,-0.9987606898492155
9.26955010e+01,5.49986774e+01,-1.69357885e-05,3.92649037,2.48694250,-4.84509849,7.50949397e-01,4.13306747e-05,6.26095201,-3.61393022,-1,-0.9986360825820502
9.57991271e+01,5.49986248e+01,-1.69495868e-05,3.92819299,2.48426104,-4.84509848,7.50949397e-01,4.13306747e-05,6.26380416,-3.60555323,-1,-0.9985089004306995
9.91903599e+01,5.49985674e+01,-1.69397184e-05,3.93005798,2.48121870,-4.84509848,7.50949397e-01,4.13306747e-05,6.26688682,-3.59650676,-1,-0.9983699325688057
1.02581593e+02,5.49985101e+01,-1.69298500e-05,3.93192298,2.47817637,-4.84509848,7.50949397e-01,4.13306747e-05,6.26996948,-3.58746028,-1,-0.9982309646946183
1.06036532e+02,5.49984516e+01,-1.69157775e-05,3.93382283,2.47505629,-4.84509848,7.50949397e-01,4.13306747e-05,6.27310106,-3.57827147,-1,-0.9980893862439133
1.09748929e+02,5.49983891e+01,-1.68847151e-05,3.93586355,2.47162203,-4.84509849,7.50949397e-01,4.13306747e-05,6.27643033,-3.56850745,-1,-0.9979372575332004
1.13461325e+02,5.49983266e+01,-1.68536526e-05,3.93790427,2.46818777,-4.84509849,7.50949397e-01,4.13306747e-05,6.27975961,-3.55874343,-1,-0.9977851288634662
1.17361399e+02,5.49982612e+01,-1.68118378e-05,3.94004407,2.46453263,-4.84509849,7.50949397e-01,4.13306747e-05,6.28322716,-3.54857826,-1,-0.9976253094181577
1.21379488e+02,5.49981940e+01,-1.67632618e-05,3.94224618,2.46073859,-4.84509849,7.50949397e-01,4.13306747e-05,6.28678166,-3.53816085,-1,-0.9974606538872165
1.25483506e+02,5.49981255e+01,-1.67102508e-05,3.94449188,2.45684747,-4.84509849,7.50949397e-01,4.13306747e-05,6.29039684,-3.52756726,-1,-0.9972924771089564
1.29798653e+02,5.49980539e+01,-1.66463430e-05,3.94684471,2.45271778,-4.84509849,7.50949397e-01,4.13306747e-05,6.29416111,-3.51654079,-1,-0.997115648566738
1.34158075e+02,5.49979817e+01,-1.65803454e-05,3.94921907,2.44854018,-4.84509849,7.50949397e-01,4.13306747e-05,6.29795545,-3.50542705,-1,-0.9969370056984473
1.38765311e+02,5.49979059e+01,-1.65026513e-05,3.95171391,2.44409441,-4.84509849,7.50949397e-01,4.13306747e-05,6.30191816,-3.49382485,-1,-0.9967482077674529
1.43422707e+02,5.49978295e+01,-1.64252720e-05,3.95423150,2.43959740,-4.84509849,7.50949397e-01,4.13306747e-05,6.30591265,-3.48213081,-1,-0.9965573543515173
1.48347662e+02,5.49977494e+01,-1.63495711e-05,3.95687042,2.43482709,-4.84509849,7.50949398e-01,4.13306747e-05,6.31007659,-3.46994692,-1,-0.9963555367510643
1.53272617e+02,5.49976693e+01,-1.62738703e-05,3.95950934,2.43005677,-4.84509849,7.50949398e-01,4.13306746e-05,6.31424053,-3.45776302,-1,-0.9961537191506113
1.58545224e+02,5.49975846e+01,-1.61871260e-05,3.96229620,2.42495552,-4.84509850,7.50949398e-01,4.13306746e-05,6.31861313,-3.44497511,-1,-0.9959376552692415
1.63848154e+02,5.49974995e+01,-1.60994184e-05,3.96509597,2.41982540,-4.84509850,7.50949399e-01,4.13306746e-05,6.32300393,-3.43213452,-1,-0.9957203487947722
1.69311392e+02,5.49974125e+01,-1.59889963e-05,3.96796317,2.41454796,-4.84509850,7.50949399e-01,4.13306746e-05,6.32749221,-3.41901297,-1,-0.9954964731281187
1.74991090e+02,5.49973229e+01,-1.58479029e-05,3.97092141,2.40907159,-4.84509850,7.50949399e-01,4.13306746e-05,6.33211213,-3.40551204,-1,-0.9952637272407638
1.80822741e+02,5.49972316e+01,-1.57072149e-05,3.97393866,2.40346457,-4.84509850,7.50949399e-01,4.13306746e-05,6.33681881,-3.39176164,-1,-0.9950247545371556
1.86831269e+02,5.49971382e+01,-1.55669987e-05,3.97702461,2.39770547,-4.84509850,7.50949399e-01,4.13306746e-05,6.34162647,-3.37772085,-1,-0.9947785336674797
1.93070173e+02,5.49970424e+01,-1.54246453e-05,3.98019403,2.39176099,-4.84509850,7.50949399e-01,4.13306745e-05,6.34655880,-3.36332399,-1,-0.9945228723193584
1.99437319e+02,5.49969452e+01,-1.52808421e-05,3.98340873,2.38571580,-4.84509850,7.50949399e-01,4.13306745e-05,6.35155909,-3.34873315,-1,-0.9942619557977955
2.06055495e+02,5.49968454e+01,-1.51333981e-05,3.98670850,2.37948113,-4.84509850,7.50949399e-01,4.13306745e-05,6.35668801,-3.33377560,-1,-0.993990752426456
2.12893606e+02,5.49967432e+01,-1.49990813e-05,3.99007543,2.37309545,-4.84509851,7.50949399e-01,4.13306745e-05,6.36191927,-3.31853107,-1,-0.9937105364338934
2.19839878e+02,5.49966400e+01,-1.48712203e-05,3.99347539,2.36663551,-4.84509851,7.50949400e-01,4.13306744e-05,6.36720084,-3.30314539,-1,-0.9934258881585013
2.27162540e+02,5.49965330e+01,-1.47371940e-05,3.99698174,2.35993682,-4.84509852,7.50949400e-01,4.13306744e-05,6.37264736,-3.28730381,-1,-0.9931258159601222
2.34508004e+02,5.49964257e+01,-1.46000193e-05,4.00049459,2.35322361,-4.84509853,7.50949401e-01,4.13306743e-05,6.37810402,-3.27143418,-1,-0.992824809368449
2.42237428e+02,5.49963163e+01,-1.43146808e-05,4.00411868,2.34626416,-4.84509852,7.50949401e-01,4.13306743e-05,6.38373664,-3.25507813,-1,-0.9925080686460335
2.50122630e+02,5.49962123e+01,-1.34843326e-05,4.00778352,2.33921420,-4.84509852,7.50949401e-01,4.13306743e-05,6.38943453,-3.23854551,-1,-0.9921849443643442
2.58214518e+02,5.49961155e+01,-1.19891979e-05,4.01150209,2.33204485,-4.84509852,7.50949401e-01,4.13306743e-05,6.39521855,-3.22178023,-1,-0.9918533503864715
2.66620218e+02,5.49960299e+01,-1.05558926e-05,4.01529588,2.32470679,-4.84509853,7.50949401e-01,4.13306743e-05,6.40112497,-3.20469131,-1,-0.9915088968424031
2.75289774e+02,5.49959531e+01,-9.31740530e-06,4.01914290,2.31724699,-4.84509853,7.50949402e-01,4.13306742e-05,6.40711954,-3.18738131,-1,-0.9911536308574523
2.84150596e+02,5.49958827e+01,-8.14786156e-06,4.02302670,2.30970278,-4.84509854,7.50949403e-01,4.13306741e-05,6.41317503,-3.16992119,-1,-0.9907905270658277
2.93345212e+02,5.49958240e+01,-6.97331970e-06,4.02697149,2.30201795,-4.84509855,7.50949404e-01,4.13306740e-05,6.41933164,-3.15221665,-1,-0.9904137448742734
3.02753742e+02,5.49957750e+01,-5.56915039e-06,4.03095840,2.29423711,-4.84509856,7.50949405e-01,4.13306739e-05,6.42555851,-3.13433901,-1,-0.9900281967934502
3.12413609e+02,5.49957372e+01,-3.95102622e-06,4.03499372,2.28634555,-4.84509855,7.50949405e-01,4.13306739e-05,6.43186632,-3.11626314,-1,-0.9896323492824304
3.22418549e+02,5.49957148e+01,-2.48265877e-06,4.03908699,2.27831852,-4.84509855,7.50949405e-01,4.13306739e-05,6.43827226,-3.09795626,-1,-0.989222361174219
3.32728225e+02,5.49957060e+01,-1.08385268e-06,4.04322753,2.27018178,-4.84509855,7.50949406e-01,4.13306738e-05,6.44475970,-3.07946086,-1,-0.9887998854212898
3.43358678e+02,5.49957032e+01,-3.51803562e-07,4.04740405,2.26195292,-4.84509857,7.50949409e-01,4.13306735e-05,6.45130492,-3.06084250,-1,-0.9883642646864428
3.54263335e+02,5.49957024e+01,-7.99379109e-08,4.05160761,2.25365272,-4.84509859,7.50949411e-01,4.13306732e-05,6.45789215,-3.04213205,-1,-0.9879174074644981
3.65521474e+02,5.49957015e+01,-8.07433148e-08,4.05584461,2.24526460,-4.84509861,7.50949413e-01,4.13306731e-05,6.46453081,-3.02330034,-1,-0.9874560650565886
3.77114234e+02,5.49957005e+01,-8.17692995e-08,4.06012011,2.23677913,-4.84509862,7.50949413e-01,4.13306730e-05,6.47122720,-3.00430181,-1,-0.986981010359474
3.89027422e+02,5.49956995e+01,-8.28523308e-08,4.06442869,2.22820839,-4.84509862,7.50949414e-01,4.13306730e-05,6.47797077,-2.98515151,-1,-0.986492824981962
4.01295356e+02,5.49956985e+01,-8.38627898e-08,4.06876904,2.21955350,-4.84509862,7.50949416e-01,4.13306728e-05,6.48475620,-2.96583923,-1,-0.9859901026215758
4.13937068e+02,5.49956974e+01,-8.48184916e-08,4.07313797,2.21082058,-4.84509861,7.50949419e-01,4.13306724e-05,6.49157556,-2.94635286,-1,-0.9854720633742208
4.26994777e+02,5.49956963e+01,-8.56163359e-08,4.07752948,2.20202078,-4.84509862,7.50949424e-01,4.13306720e-05,6.49841545,-2.92668155,-1,-0.9849369771657593
4.40497184e+02,5.49956951e+01,-8.64150029e-08,4.08194419,2.19315327,-4.84509863,7.50949428e-01,4.13306715e-05,6.50528039,-2.90677212,-1,-0.9843836678703283
4.54279331e+02,5.49956939e+01,-8.73094053e-08,4.08637861,2.18423340,-4.84509864,7.50949433e-01,4.13306710e-05,6.51217316,-2.88667983,-1,-0.9838188952304503
4.68474886e+02,5.49956927e+01,-8.84053544e-08,4.09084681,2.17522787,-4.84509864,7.50949437e-01,4.13306705e-05,6.51911897,-2.86628471,-1,-0.9832371817229769
4.83124283e+02,5.49956914e+01,-8.94096519e-08,4.09535048,2.16613695,-4.84509865,7.50949442e-01,4.13306700e-05,6.52613114,-2.84553566,-1,-0.9826368704205136
4.98224497e+02,5.49956900e+01,-9.03779209e-08,4.09988290,2.15697327,-4.84509866,7.50949448e-01,4.13306694e-05,6.53320609,-2.82446969,-1,-0.9820180852832269
5.13802857e+02,5.49956886e+01,-9.11968689e-08,4.10444145,2.14774730,-4.84509868,7.50949454e-01,4.13306688e-05,6.54035516,-2.80308146,-1,-0.9813797064078478
5.29832114e+02,5.49956871e+01,-9.20018098e-08,4.10902634,2.13846211,-4.84509871,7.50949460e-01,4.13306681e-05,6.54758683,-2.78139001,-1,-0.9807228504193597
5.46207786e+02,5.49956856e+01,-9.28708451e-08,4.11363432,2.12912582,-4.84509874,7.50949467e-01,4.13306675e-05,6.55488863,-2.75945852,-1,-0.9800517988404427
5.63084822e+02,5.49956840e+01,-9.40071677e-08,4.11828369,2.11969883,-4.84509874,7.50949472e-01,4.13306669e-05,6.56230730,-2.73715793,-1,-0.9793602020830553
5.80507141e+02,5.49956823e+01,-9.50608399e-08,4.12297071,2.11018996,-4.84509877,7.50949479e-01,4.13306662e-05,6.56984350,-2.71449876,-1,-0.9786462604094956
5.98411342e+02,5.49956806e+01,-9.60850988e-08,4.12769064,2.10061337,-4.84509880,7.50949486e-01,4.13306655e-05,6.57748538,-2.69152806,-1,-0.9779125719019158
6.16870717e+02,5.49956788e+01,-9.69625503e-08,4.13243942,2.09097995,-4.84509883,7.50949495e-01,4.13306645e-05,6.58523489,-2.66824217,-1,-0.9771561331591533
6.35864424e+02,5.49956769e+01,-9.78348454e-08,4.13721377,2.08129734,-4.84509889,7.50949506e-01,4.13306634e-05,6.59308314,-2.64466946,-1,-0.9763777982565102
6.55283856e+02,5.49956750e+01,-9.88115841e-08,4.14201196,2.07156841,-4.84509895,7.50949513e-01,4.13306626e-05,6.60101428,-2.62085573,-1,-0.9755820177532568
6.75276846e+02,5.49956730e+01,-1.00046960e-07,4.14684848,2.06176449,-4.84509895,7.50949507e-01,4.13306632e-05,6.60906513,-2.59669336,-1,-0.9747627336648377
6.95854171e+02,5.49956709e+01,-1.01209340e-07,4.15171911,2.05189816,-4.84509893,7.50949496e-01,4.13306644e-05,6.61723036,-2.57219972,-1,-0.9739195043652317
7.17026729e+02,5.49956688e+01,-1.02342692e-07,4.15662069,2.04197889,-4.84509893,7.50949483e-01,4.13306657e-05,6.62550524,-2.54738908,-1,-0.9730518832700111
7.38821955e+02,5.49956665e+01,-1.03304416e-07,4.16154722,2.03202575,-4.84509898,7.50949473e-01,4.13306668e-05,6.63388313,-2.52228317,-1,-0.9721587461321793
7.61310038e+02,5.49956642e+01,-1.04311085e-07,4.16649550,2.02204573,-4.84509905,7.50949464e-01,4.13306677e-05,6.64235806,-2.49689332,-1,-0.9712372167070684
7.84309731e+02,5.49956617e+01,-1.05555751e-07,4.17146921,2.01202770,-4.84509908,7.50949456e-01,4.13306684e-05,6.65091889,-2.47125509,-1,-0.9702947222370853
8.07956450e+02,5.49956592e+01,-1.06963499e-07,4.17647560,2.00196353,-4.84509911,7.50949452e-01,4.13306689e-05,6.65958809,-2.44530471,-1,-0.9693257135685461
8.32271242e+02,5.49956566e+01,-1.08327746e-07,4.18151207,1.99186437,-4.84509918,7.50949448e-01,4.13306693e-05,6.66836114,-2.41905489,-1,-0.9683293282255423
8.57300487e+02,5.49956538e+01,-1.09603003e-07,4.18657473,1.98174612,-4.84509934,7.50949444e-01,4.13306697e-05,6.67723288,-2.39252093,-1,-0.9673036656221176
8.83008465e+02,5.49956510e+01,-1.10790817e-07,4.19165750,1.97162468,-4.84509961,7.50949441e-01,4.13306700e-05,6.68618734,-2.36575068,-1,-0.9662501895126997
9.09329826e+02,5.49956480e+01,-1.12036417e-07,4.19675883,1.96150154,-4.84509994,7.50949437e-01,4.13306703e-05,6.69521426,-2.33877319,-1,-0.9651715778466688
9.36501907e+02,5.49956449e+01,-1.13845495e-07,4.20190160,1.95134111,-4.84509990,7.50949438e-01,4.13306702e-05,6.70436190,-2.31144787,-1,-0.9640581048937721
9.64375448e+02,5.49956417e+01,-1.15600472e-07,4.20707544,1.94116223,-4.84509980,7.50949437e-01,4.13306702e-05,6.71359994,-2.28386387,-1,-0.9629158871149806
9.92991007e+02,5.49956383e+01,-1.17368843e-07,4.21228080,1.93096935,-4.84509888,7.50949437e-01,4.13306702e-05,6.72292735,-2.25602452,-1,-0.9617432625015576
1.02245214e+03,5.49956348e+01,-1.18904006e-07,4.21751444,1.92078173,-4.84509992,7.50949448e-01,4.13306689e-05,6.73233727,-2.22795310,-1,-0.9605359874769764
1.05276121e+03,5.49956312e+01,-1.20542444e-07,4.22277794,1.91059407,-4.84510027,7.50949458e-01,4.13306678e-05,6.74182508,-2.19966281,-1,-0.9592939652088823
1.08375173e+03,5.49956274e+01,-1.22658552e-07,4.22807465,1.90038126,-4.84509948,7.50949463e-01,4.13306673e-05,6.75138798,-2.17115946,-1,-0.9580240180960274
1.11556074e+03,5.49956234e+01,-1.25042421e-07,4.23341230,1.89013420,-4.84509897,7.50949464e-01,4.13306671e-05,6.76103940,-2.14240563,-1,-0.9567205304355342
1.14820291e+03,5.49956192e+01,-1.27402032e-07,4.23878963,1.87985406,-4.84509898,7.50949468e-01,4.13306666e-05,6.77077210,-2.11342020,-1,-0.9553829010718184
1.18174863e+03,5.49956149e+01,-1.29545762e-07,4.24420451,1.86954395,-4.84509900,7.50949475e-01,4.13306658e-05,6.78057539,-2.08423445,-1,-0.9540082455235206
1.21618651e+03,5.49956103e+01,-1.31651524e-07,4.24965393,1.85919877,-4.84509916,7.50949495e-01,4.13306637e-05,6.79043776,-2.05487955,-1,-0.9525970305365231
1.25140032e+03,5.49956056e+01,-1.34139202e-07,4.25513769,1.84880580,-4.84509925,7.50949514e-01,4.13306617e-05,6.80035814,-2.02535628,-1,-0.9511540190497162
1.28754858e+03,5.49956007e+01,-1.37203313e-07,4.26066811,1.83833505,-4.84509937,7.50949516e-01,4.13306615e-05,6.81035715,-1.99560494,-1,-0.9496727151405941
1.32462516e+03,5.49955955e+01,-1.40139870e-07,4.26624189,1.82778574,-4.84509947,7.50949519e-01,4.13306612e-05,6.82042624,-1.96565027,-1,-0.948153370007775
1.36263725e+03,5.49955900e+01,-1.43055080e-07,4.27185541,1.81715521,-4.84509909,7.50949528e-01,4.13306602e-05,6.83055722,-1.93551438,-1,-0.9465956890153593
1.40166727e+03,5.49955843e+01,-1.45701389e-07,4.27750294,1.80644132,-4.84509916,7.50949547e-01,4.13306583e-05,6.84073643,-1.90524155,-1,-0.9449962947098212
1.44173300e+03,5.49955784e+01,-1.48214204e-07,4.28318063,1.79564048,-4.84509935,7.50949563e-01,4.13306567e-05,6.85095802,-1.87485021,-1,-0.943354458492232
1.48271707e+03,5.49955722e+01,-1.51167958e-07,4.28888830,1.78475153,-4.84509930,7.50949566e-01,4.13306562e-05,6.86122588,-1.84432477,-1,-0.9416749900170485
1.52477341e+03,5.49955657e+01,-1.54581816e-07,4.29463333,1.77375197,-4.84509912,7.50949557e-01,4.13306571e-05,6.87155482,-1.81361911,-1,-0.9399515814533896
1.56790672e+03,5.49955589e+01,-1.57770008e-07,4.30040976,1.76264903,-4.84509922,7.50949556e-01,4.13306571e-05,6.88193516,-1.78276269,-1,-0.9381840402019884
1.61221560e+03,5.49955518e+01,-1.60510911e-07,4.30621004,1.75144807,-4.84509954,7.50949565e-01,4.13306560e-05,6.89235529,-1.75178733,-1,-0.9363683257760984
1.65773486e+03,5.49955444e+01,-1.63094481e-07,4.31202771,1.74015807,-4.84509954,7.50949576e-01,4.13306549e-05,6.90280774,-1.72071799,-1,-0.9345030117117881
1.70432769e+03,5.49955366e+01,-1.66160721e-07,4.31786545,1.72878345,-4.84509942,7.50949576e-01,4.13306547e-05,6.91330042,-1.68953078,-1,-0.9325937042868647
1.75215130e+03,5.49955285e+01,-1.69488794e-07,4.32372699,1.71731374,-4.84509990,7.50949571e-01,4.13306551e-05,6.92384294,-1.65819379,-1,-0.9306339612607458
1.80121950e+03,5.49955201e+01,-1.72564829e-07,4.32960635,1.70576192,-4.84509970,7.50949571e-01,4.13306550e-05,6.93442649,-1.62673217,-1,-0.9286232167194156
1.85167545e+03,5.49955112e+01,-1.75113621e-07,4.33549412,1.69414326,-4.84509968,7.50949580e-01,4.13306540e-05,6.94503788,-1.59518142,-1,-0.9265556041711638
1.90358375e+03,5.49955020e+01,-1.77598146e-07,4.34138600,1.68247078,-4.84509997,7.50949592e-01,4.13306527e-05,6.95567384,-1.56355294,-1,-0.9244284764005357
1.95674334e+03,5.49954924e+01,-1.80697050e-07,4.34729013,1.67074176,-4.84510006,7.50949592e-01,4.13306526e-05,6.96634809,-1.53180396,-1,-0.9222500725582947
2.01130462e+03,5.49954824e+01,-1.83798490e-07,4.35320617,1.65895761,-4.84510016,7.50949592e-01,4.13306525e-05,6.97706267,-1.49993081,-1,-0.9200142294679023
2.06740875e+03,5.49954812e+01,-5.50765138e-09,4.35912972,1.64712963,-4.84510033,7.50949637e-01,4.13306473e-05,6.98781250,-1.46794296,-1,-0.9177151625947833
2.12510996e+03,5.49954809e+01,-5.92936828e-09,4.36505048,1.63528216,-4.84510056,7.50949687e-01,4.13306416e-05,6.99858095,-1.43590097,-1,-0.9153506496712269
2.18431372e+03,5.49954805e+01,-6.38384907e-09,4.37096821,1.62342413,-4.84509941,7.50949698e-01,4.13306398e-05,7.00936597,-1.40380021,-1,-0.9129245644012104
2.24521736e+03,5.49954801e+01,-7.03341210e-09,4.37689685,1.61153075,-4.84510104,7.50949775e-01,4.13306310e-05,7.02019478,-1.37155962,-1,-0.910428820484027
2.30779800e+03,5.49954796e+01,-7.66857734e-09,4.38283092,1.59961688,-4.84510117,7.50949821e-01,4.13306257e-05,7.03105704,-1.33921112,-1,-0.9078643555092989
2.37212817e+03,5.49954791e+01,-8.27508824e-09,4.38876497,1.58769718,-4.84510133,7.50949878e-01,4.13306190e-05,7.04194316,-1.30678398,-1,-0.905228197301532
2.43824284e+03,5.49954785e+01,-8.84336130e-09,4.39469319,1.57578808,-4.84510174,7.50949945e-01,4.13306111e-05,7.05284191,-1.27431260,-1,-0.9025189128402241
2.50604760e+03,5.49954778e+01,-9.51246278e-09,4.40062112,1.56388074,-4.84510191,7.50950005e-01,4.13306043e-05,7.06376118,-1.24177339,-1,-0.8997403709119243
2.57574860e+03,5.49954771e+01,-1.03417062e-08,4.40655701,1.55195912,-4.84510177,7.50950058e-01,4.13305981e-05,7.07471737,-1.20911375,-1,-0.896884123784961
2.64733704e+03,5.49954763e+01,-1.11530688e-08,4.41249677,1.54003296,-4.84510179,7.50950117e-01,4.13305913e-05,7.08570178,-1.17636493,-1,-0.8939505320707276
2.72097727e+03,5.49954754e+01,-1.18835282e-08,4.41843353,1.52811930,-4.84510211,7.50950182e-01,4.13305839e-05,7.09670209,-1.14355913,-1,-0.8909328609416705
2.79674293e+03,5.49954745e+01,-1.26125522e-08,4.42436488,1.51622536,-4.84510165,7.50950247e-01,4.13305763e-05,7.10771320,-1.11071231,-1,-0.8878280927360855
2.87439952e+03,5.49954734e+01,-1.35386716e-08,4.43030062,1.50432889,-4.84510112,7.50950304e-01,4.13305697e-05,7.11875011,-1.07778244,-1,-0.8846458369280303
