star_age,star_mass,star_mdot,log_Teff,log_R,log_surf_z,surface_h1,surface_he3,log_center_T,log_center_Rho,phase,x
2.54518671e+02,4.59999969,-1.03634553e-09,3.66155499,1.82287950,-3.34509849,7.49859685e-01,4.14389329e-05,5.71629699,-3.82203556,-1,-1.0
2.66184022e+02,4.59999968,-1.02328297e-09,3.66173791,1.82084157,-3.34509849,7.49859685e-01,4.14389329e-05,5.71829726,-3.81604073,-1,-0.9999799581817866
2.78342259e+02,4.59999967,-1.00995085e-09,3.66196308,1.81874081,-3.34509849,7.49859685e-01,4.14389329e-05,5.72035837,-3.80986303,-1,-0.9999590695539392
2.91036295e+02,4.59999966,-9.96790494e-10,3.66216204,1.81657503,-3.34509849,7.49859685e-01,4.14389329e-05,5.72248348,-3.80349315,-1,-0.9999372603891824
2.99531718e+02,4.59999965,-9.85379889e-10,3.66752325,1.81474801,-3.34509849,7.49859685e-01,4.14389329e-05,5.72395459,-3.79909401,-1,-0.9999226647097714
3.05885988e+02,4.59999964,-1.00944963e-09,3.67558517,1.81304953,-3.34509849,7.49859685e-01,4.14389329e-05,5.72513400,-3.79557534,-1,-0.9999117476679937
3.19825664e+02,4.59999963,-1.07698714e-09,3.67596208,1.81044169,-3.34509847,7.49859684e-01,4.14389330e-05,5.72769182,-3.78791083,-1,-0.9998877984141441
3.34393150e+02,4.59999961,-1.06294891e-09,3.67626185,1.80776435,-3.34509847,7.49859684e-01,4.14389330e-05,5.73032121,-3.78002964,-1,-0.9998627705426092
3.49645549e+02,4.59999960,-1.04832553e-09,3.67655499,1.80501152,-3.34509847,7.49859684e-01,4.14389330e-05,5.73302512,-3.77192442,-1,-0.9998365659467873
3.65547355e+02,4.59999958,-1.03259002e-09,3.67685500,1.80218799,-3.34509847,7.49859684e-01,4.14389330e-05,5.73579853,-3.76361145,-1,-0.9998092456282546
3.82144852e+02,4.59999956,-1.01572891e-09,3.67716227,1.79929000,-3.34509847,7.49859684e-01,4.14389330e-05,5.73864484,-3.75507853,-1,-0.9997807300681424
3.99556671e+02,4.59999955,-9.98187846e-10,3.67747648,1.79630699,-3.34509847,7.49859684e-01,4.14389330e-05,5.74157498,-3.74629523,-1,-0.9997508154508145
4.17752570e+02,4.59999953,-9.80165028e-10,3.67779830,1.79324476,-3.34509847,7.49859684e-01,4.14389330e-05,5.74458288,-3.73727771,-1,-0.9997195537339586
4.36740265e+02,4.59999951,-9.62129630e-10,3.67812645,1.79010559,-3.34509847,7.49859684e-01,4.14389330e-05,5.74766617,-3.72803585,-1,-0.9996869316609939
4.56546823e+02,4.59999949,-9.44009082e-10,3.67848930,1.78688827,-3.34509847,7.49859684e-01,4.14389330e-05,5.75082590,-3.71856516,-1,-0.9996529027290854
4.77320940e+02,4.59999947,-9.25707650e-10,3.67883892,1.78358386,-3.34509847,7.49859684e-01,4.14389330e-05,5.75407115,-3.70883694,-1,-0.9996172114690062
4.99009464e+02,4.59999945,-9.07098245e-10,3.67919446,1.78019962,-3.34509847,7.49859684e-01,4.14389330e-05,5.75739496,-3.69887406,-1,-0.9995799491992876
5.21616403e+02,4.59999943,-8.88855854e-10,3.67955815,1.77673899,-3.34509847,7.49859684e-01,4.14389330e-05,5.76079377,-3.68868556,-1,-0.9995411090339297
5.45348146e+02,4.59999941,-8.70386259e-10,3.67993536,1.77318849,-3.34509847,7.49859684e-01,4.14389330e-05,5.76428062,-3.67823136,-1,-0.999500336383446
5.70051755e+02,4.59999939,-8.51628822e-10,3.68036004,1.76956102,-3.34509847,7.49859684e-01,4.14389330e-05,5.76784258,-3.66755061,-1,-0.9994578940050906
5.95952051e+02,4.59999937,-8.33479510e-10,3.68075543,1.76584604,-3.34509847,7.49859684e-01,4.14389330e-05,5.77149153,-3.65660876,-1,-0.9994133956420234
6.22923868e+02,4.59999935,-8.15071915e-10,3.68115356,1.76205621,-3.34509847,7.49859684e-01,4.14389330e-05,5.77521413,-3.64544530,-1,-0.9993670563374283
6.51211711e+02,4.59999932,-7.96623824e-10,3.68158270,1.75817669,-3.34509847,7.49859684e-01,4.14389330e-05,5.77902494,-3.63401802,-1,-0.999318456016096
6.80667390e+02,4.59999930,-7.78104322e-10,3.68200017,1.75422249,-3.34509847,7.49859684e-01,4.14389330e-05,5.78290946,-3.62237128,-1,-0.9992678492779131
7.11535859e+02,4.59999928,-7.59768625e-10,3.68243060,1.75018178,-3.34509847,7.49859684e-01,4.14389330e-05,5.78687904,-3.61047186,-1,-0.9992148152762598
7.43748296e+02,4.59999925,-7.41456964e-10,3.68286532,1.74606281,-3.34509847,7.49859684e-01,4.14389330e-05,5.79092539,-3.59834198,-1,-0.9991594722517281
7.77350494e+02,4.59999923,-7.23251827e-10,3.68330467,1.74186694,-3.34509847,7.49859684e-01,4.14389330e-05,5.79504717,-3.58598702,-1,-0.9991017415290191
8.12565881e+02,4.59999920,-7.04929651e-10,3.68375481,1.73758586,-3.34509847,7.49859684e-01,4.14389330e-05,5.79925248,-3.57337816,-1,-0.9990412392445558
8.49324981e+02,4.59999918,-6.86780704e-10,3.68425517,1.73322413,-3.34509847,7.49859684e-01,4.14389330e-05,5.80353662,-3.56053215,-1,-0.9989780847625443
8.87705058e+02,4.59999915,-6.69222891e-10,3.68472352,1.72878694,-3.34509847,7.49859684e-01,4.14389330e-05,5.80789558,-3.54745920,-1,-0.9989121453384971
9.27780756e+02,4.59999913,-6.51705962e-10,3.68520252,1.72427374,-3.34509847,7.49859684e-01,4.14389330e-05,5.81232958,-3.53416128,-1,-0.9988432927292539
9.69676733e+02,4.59999910,-6.34153591e-10,3.68570784,1.71968118,-3.34509847,7.49859684e-01,4.14389330e-05,5.81684174,-3.52062976,-1,-0.9987713127644072
1.01347318e+03,4.59999907,-6.16859027e-10,3.68619781,1.71501227,-3.34509847,7.49859684e-01,4.14389330e-05,5.82142949,-3.50687208,-1,-0.9986960676706964
1.05922258e+03,4.59999904,-5.99847987e-10,3.68669463,1.71026936,-3.34509847,7.49859684e-01,4.14389331e-05,5.82609018,-3.49289694,-1,-0.9986174672789748
1.10700457e+03,4.59999902,-5.82915106e-10,3.68719613,1.70545354,-3.34509847,7.49859684e-01,4.14389331e-05,5.83082264,-3.47870414,-1,-0.9985353747677893
1.15692516e+03,4.59999899,-5.66200176e-10,3.68774364,1.70056194,-3.34509847,7.49859684e-01,4.14389331e-05,5.83562924,-3.46428918,-1,-0.9984496080051876
1.20906375e+03,4.59999896,-5.49714609e-10,3.68828208,1.69559834,-3.34509847,7.49859684e-01,4.14389332e-05,5.84050703,-3.44965916,-1,-0.9983600305768976
1.26351891e+03,4.59999893,-5.33510616e-10,3.68880864,1.69056516,-3.34509847,7.49859684e-01,4.14389332e-05,5.84545383,-3.43482388,-1,-0.9982664731333626
1.32040520e+03,4.59999890,-5.17786348e-10,3.68934260,1.68546388,-3.34509847,7.49859684e-01,4.14389333e-05,5.85046750,-3.41979015,-1,-0.9981687388531844
1.37982563e+03,4.59999887,-5.02174800e-10,3.68988915,1.68029495,-3.34509847,7.49859684e-01,4.14389334e-05,5.85554779,-3.40455656,-1,-0.9980666507586025
1.44188107e+03,4.59999884,-4.86783134e-10,3.69043861,1.67505978,-3.34509847,7.49859684e-01,4.14389335e-05,5.86069322,-3.38912637,-1,-0.9979600355485133
1.50671778e+03,4.59999881,-4.71660455e-10,3.69098989,1.66975921,-3.34509847,7.49859684e-01,4.14389336e-05,5.86590330,-3.37349978,-1,-0.9978486419388936
1.57449389e+03,4.59999878,-4.56947703e-10,3.69157002,1.66439273,-3.34509847,7.49859684e-01,4.14389338e-05,5.87117797,-3.35767478,-1,-0.9977321982523017
1.64526523e+03,4.59999875,-4.42384758e-10,3.69213814,1.65896366,-3.34509847,7.49859684e-01,4.14389340e-05,5.87651505,-3.34166658,-1,-0.9976106085692314
1.71917629e+03,4.59999871,-4.28223147e-10,3.69272976,1.65347265,-3.34509847,7.49859684e-01,4.14389343e-05,5.88191347,-3.32547571,-1,-0.9974836246466323
1.79632699e+03,4.59999868,-4.14271971e-10,3.69332229,1.64792150,-3.34509847,7.49859684e-01,4.14389347e-05,5.88737149,-3.30910622,-1,-0.9973510748155614
1.87694716e+03,4.59999865,-4.00578808e-10,3.69390927,1.64231117,-3.34509847,7.49859684e-01,4.14389352e-05,5.89288843,-3.29255827,-1,-0.9972125642133971
1.96116881e+03,4.59999862,-3.87096728e-10,3.69449721,1.63664273,-3.34509847,7.49859684e-01,4.14389358e-05,5.89846342,-3.27583595,-1,-0.9970678660385263
2.04906697e+03,4.59999858,-3.74105800e-10,3.69508571,1.63092023,-3.34509847,7.49859684e-01,4.14389366e-05,5.90409202,-3.25895474,-1,-0.9969168513846159
2.14096341e+03,4.59999855,-3.61401339e-10,3.69568815,1.62514426,-3.34509847,7.49859684e-01,4.14389376e-05,5.90971076,-3.24200421,-1,-0.9967589674302512
2.23687371e+03,4.59999852,-3.49268678e-10,3.69628798,1.61931487,-3.34509847,7.49859684e-01,4.14389389e-05,5.91544478,-3.22483307,-1,-0.9965941874079967
2.33712936e+03,4.59999848,-3.37470687e-10,3.69691352,1.61343715,-3.34509847,7.49859684e-01,4.14389406e-05,5.92118839,-3.20756572,-1,-0.9964219417968564
2.44169143e+03,4.59999845,-3.25837080e-10,3.69753646,1.60750837,-3.34509847,7.49859684e-01,4.14389428e-05,5.92701538,-3.19007913,-1,-0.9962422974810573
2.55107251e+03,4.59999841,-3.14513606e-10,3.69814947,1.60153157,-3.34509847,7.49859684e-01,4.14389457e-05,5.93289148,-3.17244731,-1,-0.9960543737982347
2.66518912e+03,4.59999838,-3.03383042e-10,3.69877476,1.59550885,-3.34509847,7.49859684e-01,4.14389494e-05,5.93881757,-3.15467213,-1,-0.9958583141723613
2.78440052e+03,4.59999834,-2.92612462e-10,3.69939142,1.58944090,-3.34509847,7.49859684e-01,4.14389542e-05,5.94476687,-3.13674567,-1,-0.995653501371807
2.90891864e+03,4.59999831,-2.82169865e-10,3.70002850,1.58332888,-3.34509847,7.49859684e-01,4.14389603e-05,5.95070286,-3.11861772,-1,-0.9954395712872938
3.03891598e+03,4.59999827,-2.71998317e-10,3.70067318,1.57717394,-3.34509847,7.49859684e-01,4.14389681e-05,5.95662358,-3.10028167,-1,-0.9952162275528019
3.17472299e+03,4.59999823,-2.62119704e-10,3.70130104,1.57097908,-3.34509847,7.49859684e-01,4.14389776e-05,5.96253868,-3.08174907,-1,-0.994982902434122
3.31648695e+03,4.59999820,-2.52581694e-10,3.70193367,1.56474759,-3.34509847,7.49859684e-01,4.14389892e-05,5.96843543,-3.06302177,-1,-0.9947393428948057
3.46462757e+03,4.59999816,-2.43333962e-10,3.70259465,1.55847733,-3.34509847,7.49859684e-01,4.14390031e-05,5.97432463,-3.04409148,-1,-0.9944848278462614
3.61925774e+03,4.59999813,-2.34347247e-10,3.70323726,1.55217417,-3.34509847,7.49859684e-01,4.14390196e-05,5.98020539,-3.02497137,-1,-0.9942191633362575
3.78072671e+03,4.59999809,-2.25616629e-10,3.70387295,1.54583943,-3.34509847,7.49859684e-01,4.14390390e-05,5.98607732,-3.00565438,-1,-0.9939417493309837
3.94948708e+03,4.59999805,-2.17246729e-10,3.70456109,1.53946864,-3.34509847,7.49859684e-01,4.14390614e-05,5.99194570,-2.98612235,-1,-0.9936518082347272
4.12549606e+03,4.59999801,-2.09044876e-10,3.70520620,1.53307261,-3.34509847,7.49859684e-01,4.14390870e-05,5.99780318,-2.96640745,-1,-0.9933494135634416
4.30952368e+03,4.59999798,-2.01251921e-10,3.70585261,1.52665160,-3.34509847,7.49859684e-01,4.14391165e-05,6.00365094,-2.94649850,-1,-0.9930332423563966
4.50157928e+03,4.59999794,-1.93650818e-10,3.70650190,1.52020780,-3.34509847,7.49859684e-01,4.14391500e-05,6.00949308,-2.92640019,-1,-0.9927032785668755
4.70206662e+03,4.59999790,-1.86203348e-10,3.70714842,1.51374242,-3.34509847,7.49859684e-01,4.14391880e-05,6.01533076,-2.90610627,-1,-0.9923588285094056
4.91162017e+03,4.59999786,-1.79100891e-10,3.70779432,1.50725727,-3.34509847,7.49859684e-01,4.14392309e-05,6.02116484,-2.88561379,-1,-0.9919988021239963
5.13040544e+03,4.59999782,-1.72239931e-10,3.70846084,1.50075326,-3.34509847,7.49859684e-01,4.14392794e-05,6.02699783,-2.86493103,-1,-0.9916229150538948
5.35878984e+03,4.59999779,-1.65661658e-10,3.70910888,1.49423621,-3.34509847,7.49859684e-01,4.14393338e-05,6.03282938,-2.84406839,-1,-0.9912305360652502
5.59730767e+03,4.59999775,-1.59310097e-10,3.70978947,1.48770308,-3.34509847,7.49859684e-01,4.14393948e-05,6.03866313,-2.82300726,-1,-0.9908207471965311
5.84651338e+03,4.59999771,-1.53183968e-10,3.71043882,1.48116139,-3.34509847,7.49859684e-01,4.14394631e-05,6.04449798,-2.80175891,-1,-0.9903925958672187
6.10676446e+03,4.59999767,-1.47313574e-10,3.71108798,1.47461360,-3.34509847,7.49859684e-01,4.14395394e-05,6.05033321,-2.78033092,-1,-0.9899454678866559
6.37853529e+03,4.59999763,-1.41625235e-10,3.71175432,1.46805827,-3.34509847,7.49859684e-01,4.14396243e-05,6.05617319,-2.75870890,-1,-0.9894785482396989
6.66228767e+03,4.59999759,-1.36177927e-10,3.71240544,1.46150126,-3.34509847,7.49859684e-01,4.14397183e-05,6.06202060,-2.73690999,-1,-0.9889910435244476
6.95857384e+03,4.59999755,-1.30933502e-10,3.71305780,1.45494438,-3.34509847,7.49859684e-01,4.14398223e-05,6.06787666,-2.71492718,-1,-0.988482004957304
7.26807248e+03,4.59999751,-1.25905022e-10,3.71374216,1.44838453,-3.34509847,7.49859684e-01,4.14399371e-05,6.07374746,-2.69275114,-1,-0.9879502665226734
7.59143406e+03,4.59999747,-1.21079310e-10,3.71439144,1.44183338,-3.34509847,7.49859684e-01,4.14400637e-05,6.07962543,-2.67041527,-1,-0.987394710671543
7.92921404e+03,4.59999743,-1.16440959e-10,3.71506756,1.43528746,-3.34509847,7.49859684e-01,4.14402028e-05,6.08552025,-2.64789903,-1,-0.9868143830881496
8.28186552e+03,4.59999739,-1.11983812e-10,3.71572112,1.42875269,-3.34509847,7.49859684e-01,4.14403551e-05,6.09143606,-2.62522303,-1,-0.9862085053177486
8.65011152e+03,4.59999735,-1.07699988e-10,3.71637496,1.42223149,-3.34509847,7.49859684e-01,4.14405213e-05,6.09737298,-2.60238377,-1,-0.9855758351657926
9.03465174e+03,4.59999731,-1.03563208e-10,3.71702649,1.41572616,-3.34509847,7.49859684e-01,4.14407021e-05,6.10333423,-2.57939185,-1,-0.984915170502984
9.43656003e+03,4.59999727,-9.96356386e-11,3.71769515,1.40923913,-3.34509847,7.49859684e-01,4.14408983e-05,6.10932710,-2.55624704,-1,-0.9842246663864243
9.85638891e+03,4.59999723,-9.58607904e-11,3.71834707,1.40277593,-3.34509847,7.49859683e-01,4.14411105e-05,6.11535254,-2.53296712,-1,-0.9835033735514577
1.02948766e+04,4.59999719,-9.22381177e-11,3.71900465,1.39633860,-3.34509847,7.49859683e-01,4.14413390e-05,6.12141582,-2.50956349,-1,-0.9827500236889659
1.07529214e+04,4.59999715,-8.87734649e-11,3.71967723,1.38993009,-3.34509847,7.49859683e-01,4.14415844e-05,6.12752302,-2.48605133,-1,-0.9819630734621646
1.12312938e+04,4.59999711,-8.54597232e-11,3.72033650,1.38355617,-3.34509847,7.49859683e-01,4.14418464e-05,6.13367758,-2.46244801,-1,-0.9811411991200141
1.17309582e+04,4.59999707,-8.22955447e-11,3.72098537,1.37722310,-3.34509847,7.49859683e-01,4.14421255e-05,6.13988282,-2.43878035,-1,-0.9802827437617074
1.22534568e+04,4.59999703,-7.92676473e-11,3.72164989,1.37093461,-3.34509847,7.49859683e-01,4.14424219e-05,6.14615906,-2.41504490,-1,-0.9793850577891271
1.27992539e+04,4.59999698,-7.63907335e-11,3.72229746,1.36469901,-3.34509847,7.49859683e-01,4.14427349e-05,6.15250058,-2.39129672,-1,-0.9784473435052132
1.33693900e+04,4.59999694,-7.36232034e-11,3.72293778,1.35852197,-3.34509847,7.49859683e-01,4.14430635e-05,6.15889398,-2.36758568,-1,-0.9774678132644976
1.39650502e+04,4.59999690,-7.09895491e-11,3.72358102,1.35240970,-3.34509847,7.49859683e-01,4.14434070e-05,6.16533974,-2.34398104,-1,-0.9764444309894745
1.45880316e+04,4.59999685,-6.85017277e-11,3.72426585,1.34636360,-3.34509847,7.49859683e-01,4.14437644e-05,6.17184990,-2.32047388,-1,-0.9753741091475434
1.52391908e+04,4.59999681,-6.61270867e-11,3.72490383,1.34040225,-3.34509847,7.49859683e-01,4.14441344e-05,6.17843026,-2.29707404,-1,-0.9742553760451838
1.59195494e+04,4.59999677,-6.38546121e-11,3.72553525,1.33452993,-3.34509847,7.49859682e-01,4.14445155e-05,6.18501335,-2.27385521,-1,-0.9730864765083345
1.66304293e+04,4.59999672,-6.17090560e-11,3.72616205,1.32875321,-3.34509847,7.49859682e-01,4.14449054e-05,6.19157374,-2.25086014,-1,-0.9718651394283514
1.73745280e+04,4.59999668,-5.96750473e-11,3.72680631,1.32308034,-3.34509847,7.49859682e-01,4.14453024e-05,6.19809405,-2.22796106,-1,-0.9705867303279151
1.81520099e+04,4.59999663,-5.77503183e-11,3.72742280,1.31751645,-3.34509848,7.49859682e-01,4.14457036e-05,6.20447089,-2.20519713,-1,-0.9692509667573236
1.89641627e+04,4.59999659,-5.59249976e-11,3.72803154,1.31206430,-3.34509848,7.49859682e-01,4.14461080e-05,6.21067030,-2.18239496,-1,-0.9678556363657171
1.98143105e+04,4.59999654,-5.41875436e-11,3.72863155,1.30673036,-3.34509848,7.49859682e-01,4.14465127e-05,6.21662215,-2.15944278,-1,-0.9663950281369488
2.07019492e+04,4.59999649,-5.25516661e-11,3.72924165,1.30150560,-3.34509848,7.49859682e-01,4.14469156e-05,6.22231647,-2.13617689,-1,-0.9648700081470207
2.16306602e+04,4.59999645,-5.10113526e-11,3.72985511,1.29639214,-3.34509848,7.49859682e-01,4.14473150e-05,6.22775729,-2.11244630,-1,-0.9632744233219495
2.26003699e+04,4.59999640,-4.95406212e-11,3.73045116,1.29138797,-3.34509848,7.49859682e-01,4.14477092e-05,6.23290875,-2.08839358,-1,-0.9616084001112365
2.36146674e+04,4.59999635,-4.81448156e-11,3.73105788,1.28649675,-3.34509848,7.49859682e-01,4.14480955e-05,6.23809081,-2.06359937,-1,-0.9598657722118062
2.46735331e+04,4.59999630,-4.68295186e-11,3.73166242,1.28171912,-3.34509848,7.49859681e-01,4.14484716e-05,6.24329330,-2.03822793,-1,-0.9580465732977107
2.57814175e+04,4.59999625,-4.55895355e-11,3.73226958,1.27707303,-3.34509848,7.49859681e-01,4.14488351e-05,6.24861583,-2.01225529,-1,-0.9561431571256472
2.69376914e+04,4.59999620,-4.44221145e-11,3.73288099,1.27256558,-3.34509848,7.49859681e-01,4.14491832e-05,6.25413259,-1.98575190,-1,-0.9541566047014098
2.81481870e+04,4.59999614,-4.33310313e-11,3.73349443,1.26822882,-3.34509848,7.49859681e-01,4.14495103e-05,6.25989970,-1.95868862,-1,-0.952076895932831
2.94114436e+04,4.59999609,-4.23238524e-11,3.73412159,1.26407247,-3.34509848,7.49859681e-01,4.14498143e-05,6.26592070,-1.93108583,-1,-0.949906540395822
3.07342766e+04,4.59999603,-4.14107206e-11,3.73478805,1.26013628,-3.34509848,7.49859681e-01,4.14500906e-05,6.27223520,-1.90289142,-1,-0.9476338287978076
3.21147797e+04,4.59999598,-4.05826111e-11,3.73544745,1.25643846,-3.34509848,7.49859681e-01,4.14503366e-05,6.27883310,-1.87412296,-1,-0.9452620362839643
3.35599660e+04,4.59999592,-3.98517117e-11,3.73612977,1.25303491,-3.34509848,7.49859681e-01,4.14505478e-05,6.28578069,-1.84461460,-1,-0.9427791139004876
3.50681789e+04,4.59999586,-3.92233662e-11,3.73682808,1.24994590,-3.34509848,7.49859681e-01,4.14507251e-05,6.29303626,-1.81444565,-1,-0.9401879077920031
3.66469830e+04,4.59999580,-3.87079054e-11,3.73754491,1.24724801,-3.34509848,7.49859681e-01,4.14508670e-05,6.30058625,-1.78366255,-1,-0.9374754214924758
3.82941057e+04,4.59999574,-3.83151286e-11,3.73828951,1.24497051,-3.34509848,7.49859682e-01,4.14509771e-05,6.30845841,-1.75220491,-1,-0.9346455594738817
4.00171781e+04,4.59999567,-3.80653897e-11,3.73906595,1.24321868,-3.34509848,7.49859682e-01,4.14510555e-05,6.31669895,-1.71997126,-1,-0.931685211018938
4.18127019e+04,4.59999560,-3.79677779e-11,3.73988925,1.24202633,-3.34509848,7.49859682e-01,4.14511082e-05,6.32529606,-1.68698220,-1,-0.9286003864305199
4.36881420e+04,4.59999553,-3.80667499e-11,3.74074450,1.24154451,-3.34509848,7.49859682e-01,4.14511427e-05,6.33430506,-1.65315273,-1,-0.9253782605335614
4.56396760e+04,4.59999546,-3.83846255e-11,3.74164804,1.24186250,-3.34509848,7.49859682e-01,4.14511633e-05,6.34371661,-1.61851114,-1,-0.9220254004554416
4.76673624e+04,4.59999538,-3.89831657e-11,3.74261010,1.24313227,-3.34509848,7.49859683e-01,4.14511742e-05,6.35354245,-1.58302349,-1,-0.9185417056894235
4.97678241e+04,4.59999529,-3.99282412e-11,3.74364369,1.24551308,-3.34509848,7.49859683e-01,4.14511792e-05,6.36379072,-1.54670798,-1,-0.9149329783090399
5.19333190e+04,4.59999521,-4.12932273e-11,3.74476380,1.24914136,-3.34509848,7.49859683e-01,4.14511811e-05,6.37447275,-1.50965063,-1,-0.9112125197366644
5.41548488e+04,4.59999511,-4.31598501e-11,3.74599268,1.25410635,-3.34509848,7.49859684e-01,4.14511817e-05,6.38557812,-1.47192693,-1,-0.9073957896265186
5.64218075e+04,4.59999501,-4.55893360e-11,3.74736342,1.26032222,-3.34509848,7.49859684e-01,4.14511818e-05,6.39709650,-1.43362914,-1,-0.903501009764125
5.87327685e+04,4.59999490,-4.85628331e-11,3.74890821,1.26740486,-3.34509848,7.49859685e-01,4.14511818e-05,6.40905233,-1.39471423,-1,-0.8995306311394166
6.11057580e+04,4.59999478,-5.19237006e-11,3.75066182,1.27461640,-3.34509848,7.49859686e-01,4.14511817e-05,6.42154790,-1.35480276,-1,-0.8954536835892598
6.35759524e+04,4.59999465,-5.53682230e-11,3.75268346,1.28093991,-3.34509849,7.49859687e-01,4.14511815e-05,6.43475517,-1.31331365,-1,-0.8912097318113481
6.61736094e+04,4.59999450,-5.85106386e-11,3.75503420,1.28546689,-3.34509849,7.49859689e-01,4.14511813e-05,6.44878361,-1.26984909,-1,-0.8867467911441866
6.89044494e+04,4.59999433,-6.11235231e-11,3.75776436,1.28785900,-3.34509849,7.49859691e-01,4.14511811e-05,6.46358751,-1.22441806,-1,-0.8820550335751498
7.17576056e+04,4.59999416,-6.31809975e-11,3.76091577,1.28820612,-3.34509850,7.49859695e-01,4.14511806e-05,6.47903597,-1.17735307,-1,-0.8771531289608208
