star_age,star_mass,star_mdot,log_Teff,log_R,log_surf_z,surface_h1,surface_he3,log_center_T,log_center_Rho,phase,x
9.21992456e+01,2.19999616e+01,-3.56412743e-07,3.65616967,2.42382706,-3.34509853,7.49859687e-01,4.14389326e-05,5.71108268,-4.86124458,-1,-1.0
9.57881616e+01,2.19999604e+01,-3.52621001e-07,3.65631621,2.42228306,-3.34509853,7.49859687e-01,4.14389326e-05,5.71274749,-4.85465495,-1,-0.9999133945032946
9.94948169e+01,2.19999591e+01,-3.48750352e-07,3.65646539,2.42071308,-3.34509853,7.49859688e-01,4.14389326e-05,5.71444889,-4.84791373,-1,-0.9998239477947698
1.03330916e+02,2.19999578e+01,-3.44841366e-07,3.65661761,2.41911302,-3.34509854,7.49859688e-01,4.14389326e-05,5.71619224,-4.84099936,-1,-0.9997313774286853
1.07304018e+02,2.19999564e+01,-3.40947962e-07,3.65677327,2.41747909,-3.34509854,7.49859688e-01,4.14389326e-05,5.71798248,-4.83389236,-1,-0.9996355009935246
1.11462630e+02,2.19999550e+01,-3.37041303e-07,3.65693475,2.41579437,-3.34509854,7.49859688e-01,4.14389326e-05,5.71984488,-4.82649273,-1,-0.9995351479460125
1.15778367e+02,2.19999536e+01,-3.33045749e-07,3.65709927,2.41408110,-3.34509855,7.49859688e-01,4.14389325e-05,5.72174992,-4.81891096,-1,-0.9994310032553776
1.20250613e+02,2.19999521e+01,-3.28995327e-07,3.65726775,2.41233185,-3.34509855,7.49859688e-01,4.14389325e-05,5.72370945,-4.81110565,-1,-0.99932308178655
1.24889830e+02,2.19999506e+01,-3.24925377e-07,3.65744042,2.41054517,-3.34509855,7.49859689e-01,4.14389325e-05,5.72572685,-4.80306298,-1,-0.9992111310770296
1.29703035e+02,2.19999490e+01,-3.20844891e-07,3.65761707,2.40872465,-3.34509855,7.49859689e-01,4.14389325e-05,5.72779847,-4.79479493,-1,-0.9990949817969212
1.34700154e+02,2.19999475e+01,-3.16701568e-07,3.65779792,2.40687113,-3.34509856,7.49859689e-01,4.14389325e-05,5.72992531,-4.78629704,-1,-0.9989743944181442
1.39890468e+02,2.19999458e+01,-3.12536407e-07,3.65798192,2.40499124,-3.34509857,7.49859689e-01,4.14389324e-05,5.73210023,-4.77759391,-1,-0.9988491449773584
1.45294323e+02,2.19999442e+01,-3.08410232e-07,3.65816826,2.40306909,-3.34509857,7.49859690e-01,4.14389324e-05,5.73435073,-4.76858518,-1,-0.9987187424975014
1.50905338e+02,2.19999425e+01,-3.04255421e-07,3.65836161,2.40112332,-3.34509858,7.49859690e-01,4.14389323e-05,5.73664978,-4.75936878,-1,-0.9985833409609103
1.56729403e+02,2.19999407e+01,-3.00113630e-07,3.65855857,2.39914119,-3.34509859,7.49859691e-01,4.14389323e-05,5.73901993,-4.74985804,-1,-0.9984427982337556
1.62774756e+02,2.19999389e+01,-2.95933703e-07,3.65876035,2.39712941,-3.34509859,7.49859691e-01,4.14389323e-05,5.74145401,-4.74008082,-1,-0.9982969155217265
1.69050632e+02,2.19999371e+01,-2.91772810e-07,3.65896427,2.39509064,-3.34509860,7.49859691e-01,4.14389323e-05,5.74395194,-4.73003833,-1,-0.9981454699715266
1.75566670e+02,2.19999352e+01,-2.87641715e-07,3.65917318,2.39303348,-3.34509860,7.49859691e-01,4.14389322e-05,5.74650508,-4.71976916,-1,-0.9979882289807814
1.82331563e+02,2.19999333e+01,-2.83563007e-07,3.65938479,2.39094623,-3.34509860,7.49859692e-01,4.14389322e-05,5.74913476,-4.70918503,-1,-0.9978249827754025
1.89353499e+02,2.19999313e+01,-2.79440360e-07,3.65960246,2.38883572,-3.34509861,7.49859692e-01,4.14389322e-05,5.75183533,-4.69831475,-1,-0.9976555337676483
1.96657515e+02,2.19999293e+01,-2.75288898e-07,3.65982133,2.38670518,-3.34509861,7.49859692e-01,4.14389322e-05,5.75460893,-4.68714096,-1,-0.9974792777801512
2.04245132e+02,2.19999273e+01,-2.71241614e-07,3.66004493,2.38456623,-3.34509861,7.49859692e-01,4.14389321e-05,5.75744115,-4.67571959,-1,-0.997296178109082
2.12120513e+02,2.19999252e+01,-2.67293534e-07,3.66027139,2.38241093,-3.34509862,7.49859692e-01,4.14389321e-05,5.76035090,-4.66398636,-1,-0.9971061342955045
2.20294240e+02,2.19999230e+01,-2.63312767e-07,3.66050387,2.38023689,-3.34509862,7.49859693e-01,4.14389321e-05,5.76334772,-4.65190527,-1,-0.9969088909811531
2.28777213e+02,2.19999208e+01,-2.59349001e-07,3.66073963,2.37805470,-3.34509862,7.49859693e-01,4.14389321e-05,5.76642184,-4.63951389,-1,-0.9967041851339827
2.37578335e+02,2.19999186e+01,-2.55461380e-07,3.66097958,2.37586807,-3.34509863,7.49859693e-01,4.14389321e-05,5.76957418,-4.62680823,-1,-0.996491801912315
2.46707635e+02,2.19999163e+01,-2.51657356e-07,3.66122225,2.37368130,-3.34509863,7.49859693e-01,4.14389321e-05,5.77280599,-4.61378572,-1,-0.9962714993025374
2.56217217e+02,2.19999139e+01,-2.47990001e-07,3.66146753,2.37150993,-3.34509863,7.49859693e-01,4.14389320e-05,5.77611007,-4.60045996,-1,-0.9960420199632132
2.66092053e+02,2.19999115e+01,-2.44391024e-07,3.66171550,2.36934579,-3.34509864,7.49859693e-01,4.14389320e-05,5.77950524,-4.58677874,-1,-0.9958037265407246
2.76334822e+02,2.19999090e+01,-2.40835786e-07,3.66196878,2.36718881,-3.34509864,7.49859694e-01,4.14389320e-05,5.78299925,-4.57271479,-1,-0.995556554387104
2.86958477e+02,2.19999065e+01,-2.37359543e-07,3.66222448,2.36505182,-3.34509864,7.49859694e-01,4.14389320e-05,5.78658255,-4.55830189,-1,-0.9953001909285829
2.97973859e+02,2.19999039e+01,-2.33957551e-07,3.66248405,2.36294034,-3.34509864,7.49859694e-01,4.14389320e-05,5.79025720,-4.54353680,-1,-0.995034374556868
3.09463518e+02,2.19999013e+01,-2.30712979e-07,3.66274613,2.36086754,-3.34509865,7.49859694e-01,4.14389320e-05,5.79404211,-4.52835138,-1,-0.9947571132265192
3.21375563e+02,2.19998985e+01,-2.27588274e-07,3.66301081,2.35883612,-3.34509865,7.49859694e-01,4.14389319e-05,5.79792516,-4.51279554,-1,-0.9944696591389892
3.33726085e+02,2.19998958e+01,-2.24595489e-07,3.66327877,2.35686021,-3.34509865,7.49859695e-01,4.14389319e-05,5.80190033,-4.49690534,-1,-0.9941716239962384
3.46540156e+02,2.19998929e+01,-2.21784203e-07,3.66355000,2.35493885,-3.34509866,7.49859695e-01,4.14389319e-05,5.80599167,-4.48059139,-1,-0.993862402776301
3.59894677e+02,2.19998900e+01,-2.19107582e-07,3.66382205,2.35309539,-3.34509866,7.49859695e-01,4.14389319e-05,5.81021352,-4.46380595,-1,-0.9935401397519038
3.73739311e+02,2.19998870e+01,-2.16585097e-07,3.66409789,2.35133358,-3.34509866,7.49859695e-01,4.14389319e-05,5.81455156,-4.44661202,-1,-0.9932060496243349
3.88091250e+02,2.19998839e+01,-2.14257795e-07,3.66437224,2.34967339,-3.34509867,7.49859695e-01,4.14389318e-05,5.81899556,-4.42904803,-1,-0.9928597175269048
4.03006975e+02,2.19998807e+01,-2.12138111e-07,3.66464938,2.34813207,-3.34509867,7.49859696e-01,4.14389318e-05,5.82356784,-4.41104277,-1,-0.9924997804951254
4.18524620e+02,2.19998775e+01,-2.10281015e-07,3.66493035,2.34671888,-3.34509867,7.49859696e-01,4.14389318e-05,5.82830638,-4.39248044,-1,-0.9921253183029418
4.34609068e+02,2.19998741e+01,-2.08648332e-07,3.66521127,2.34545237,-3.34509868,7.49859696e-01,4.14389318e-05,5.83318249,-4.37346081,-1,-0.9917371783720346
4.51281864e+02,2.19998707e+01,-2.07284926e-07,3.66549744,2.34435252,-3.34509868,7.49859696e-01,4.14389318e-05,5.83820351,-4.35396755,-1,-0.9913348407918161
4.68630089e+02,2.19998671e+01,-2.06256878e-07,3.66577854,2.34346662,-3.34509868,7.49859696e-01,4.14389317e-05,5.84339225,-4.33393490,-1,-0.9909162041775622
4.86651890e+02,2.19998634e+01,-2.05571302e-07,3.66606377,2.34281984,-3.34509869,7.49859696e-01,4.14389317e-05,5.84874868,-4.31338178,-1,-0.9904813132447206
5.05327567e+02,2.19998595e+01,-2.05285796e-07,3.66634922,2.34242765,-3.34509869,7.49859697e-01,4.14389317e-05,5.85427483,-4.29231029,-1,-0.9900306433814822
5.24672427e+02,2.19998556e+01,-2.05437134e-07,3.66663577,2.34231739,-3.34509869,7.49859697e-01,4.14389317e-05,5.85999119,-4.27065880,-1,-0.9895638252088095
5.44807202e+02,2.19998514e+01,-2.06177556e-07,3.66692277,2.34258841,-3.34509869,7.49859697e-01,4.14389317e-05,5.86592833,-4.24836094,-1,-0.9890779452969013
5.65663010e+02,2.19998471e+01,-2.07552680e-07,3.66721006,2.34325216,-3.34509869,7.49859697e-01,4.14389317e-05,5.87207584,-4.22546865,-1,-0.9885746658634924
5.87222839e+02,2.19998426e+01,-2.09647929e-07,3.66749760,2.34434657,-3.34509870,7.49859697e-01,4.14389316e-05,5.87843677,-4.20198963,-1,-0.9880543974316238
6.09627742e+02,2.19998378e+01,-2.12805270e-07,3.66778460,2.34603350,-3.34509870,7.49859697e-01,4.14389316e-05,5.88506541,-4.17778901,-1,-0.9875137361977162
6.32738846e+02,2.19998328e+01,-2.17066549e-07,3.66807095,2.34829853,-3.34509870,7.49859697e-01,4.14389316e-05,5.89192716,-4.15297070,-1,-0.98695603335894
6.56610156e+02,2.19998275e+01,-2.22777132e-07,3.66835793,2.35128413,-3.34509870,7.49859697e-01,4.14389316e-05,5.89905674,-4.12746993,-1,-0.9863799857001043
6.81213179e+02,2.19998219e+01,-2.30260697e-07,3.66864717,2.35510724,-3.34509869,7.49859697e-01,4.14389317e-05,5.90646264,-4.10129292,-1,-0.9857862807966268
7.06489133e+02,2.19998159e+01,-2.39951610e-07,3.66894310,2.35990034,-3.34509869,7.49859697e-01,4.14389317e-05,5.91415057,-4.07446635,-1,-0.9851763371393019
7.32320733e+02,2.19998095e+01,-2.52258062e-07,3.66924821,2.36573636,-3.34509868,7.49859697e-01,4.14389317e-05,5.92210659,-4.04706883,-1,-0.9845529849770627
7.58593594e+02,2.19998026e+01,-2.67872232e-07,3.66957202,2.37277059,-3.34509868,7.49859696e-01,4.14389317e-05,5.93032857,-4.01917753,-1,-0.9839189845778401
7.85114262e+02,2.19997952e+01,-2.87536582e-07,3.66993969,2.38105192,-3.34509867,7.49859696e-01,4.14389318e-05,5.93878358,-3.99094624,-1,-0.9832790042536703
8.11656542e+02,2.19997871e+01,-3.12305362e-07,3.67037779,2.39064783,-3.34509866,7.49859695e-01,4.14389319e-05,5.94742980,-3.96254201,-1,-0.9826385024021104
8.37874342e+02,2.19997785e+01,-3.43225138e-07,3.67093399,2.40156488,-3.34509865,7.49859694e-01,4.14389319e-05,5.95614712,-3.93431335,-1,-0.9820058307008162
8.63175194e+02,2.19997692e+01,-3.82552317e-07,3.67176954,2.41372200,-3.34509863,7.49859693e-01,4.14389320e-05,5.96482386,-3.90673150,-1,-0.9813952862203855
8.87890925e+02,2.19997590e+01,-4.30893707e-07,3.67313284,2.42583996,-3.34509862,7.49859693e-01,4.14389321e-05,5.97356851,-3.87942748,-1,-0.980798861517302
9.14750190e+02,2.19997467e+01,-4.78909345e-07,3.67503261,2.43526491,-3.34509860,7.49859692e-01,4.14389322e-05,5.98333094,-3.84944018,-1,-0.9801507103801714
9.44102287e+02,2.19997318e+01,-5.21027430e-07,3.67737122,2.44165925,-3.34509858,7.49859691e-01,4.14389323e-05,5.99418962,-3.81651151,-1,-0.9794424037661327
9.74809122e+02,2.19997151e+01,-5.60181164e-07,3.68026672,2.44578933,-3.34509857,7.49859690e-01,4.14389324e-05,6.00568385,-3.78204494,-1,-0.9787014054542678
1.00623843e+03,2.19996968e+01,-5.96624548e-07,3.68392723,2.44762290,-3.34509856,7.49859689e-01,4.14389324e-05,6.01754161,-3.74687299,-1,-0.9779429728717147
1.03781527e+03,2.19996774e+01,-6.29293718e-07,3.68854305,2.44685297,-3.34509855,7.49859689e-01,4.14389325e-05,6.02955406,-3.71156015,-1,-0.9771809801383695
1.06943744e+03,2.19996570e+01,-6.58147089e-07,3.69391385,2.44398612,-3.34509855,7.49859688e-01,4.14389325e-05,6.04162550,-3.67635793,-1,-0.9764178935295573
1.10122152e+03,2.19996356e+01,-6.83935308e-07,3.69980237,2.43961681,-3.34509855,7.49859688e-01,4.14389325e-05,6.05380372,-3.64108613,-1,-0.9756508998089678
1.13329022e+03,2.19996132e+01,-7.07325698e-07,3.70607405,2.43407662,-3.34509855,7.49859689e-01,4.14389325e-05,6.06606307,-3.60582572,-1,-0.9748770378149296
1.16565485e+03,2.19995899e+01,-7.28302547e-07,3.71266628,2.42752261,-3.34509854,7.49859688e-01,4.14389325e-05,6.07845410,-3.57038787,-1,-0.974096034621532
1.19833798e+03,2.19995658e+01,-7.46919101e-07,3.71953411,2.42006955,-3.34509854,7.49859688e-01,4.14389326e-05,6.09095993,-3.53479073,-1,-0.9733073455835227
1.23138500e+03,2.19995408e+01,-7.63006715e-07,3.72664319,2.41177431,-3.34509854,7.49859688e-01,4.14389326e-05,6.10356552,-3.49906512,-1,-0.9725098753775517
1.26485664e+03,2.19995150e+01,-7.76473409e-07,3.73396212,2.40268730,-3.34509853,7.49859688e-01,4.14389326e-05,6.11622709,-3.46337991,-1,-0.9717021585048962
1.29878406e+03,2.19994884e+01,-7.86986579e-07,3.74147171,2.39281982,-3.34509853,7.49859688e-01,4.14389326e-05,6.12894412,-3.42771798,-1,-0.9708834430317472
1.33311396e+03,2.19994613e+01,-7.94716174e-07,3.74915995,2.38223741,-3.34509852,7.49859688e-01,4.14389326e-05,6.14174718,-3.39191099,-1,-0.9700550151606726
1.36791252e+03,2.19994335e+01,-7.99729755e-07,3.75700167,2.37099090,-3.34509853,7.49859688e-01,4.14389326e-05,6.15460198,-3.35609195,-1,-0.9692152778769267
1.40324351e+03,2.19994052e+01,-8.01875690e-07,3.76497701,2.35910010,-3.34509853,7.49859689e-01,4.14389325e-05,6.16748444,-3.32033032,-1,-0.9683626923223909
1.43914610e+03,2.19993764e+01,-8.01218617e-07,3.77306906,2.34660371,-3.34509853,7.49859689e-01,4.14389325e-05,6.18038264,-3.28463132,-1,-0.9674963132709004
1.47563826e+03,2.19993472e+01,-7.97948493e-07,3.78126364,2.33355294,-3.34509853,7.49859689e-01,4.14389324e-05,6.19330505,-3.24894131,-1,-0.9666157070815518
1.51275769e+03,2.19993177e+01,-7.92264528e-07,3.78954697,2.31999310,-3.34509855,7.49859691e-01,4.14389322e-05,6.20624035,-3.21327667,-1,-0.9657199640013097
1.55052026e+03,2.19992880e+01,-7.84471120e-07,3.79790770,2.30598224,-3.34509857,7.49859693e-01,4.14389321e-05,6.21919705,-3.17758532,-1,-0.9648087010651691
1.58903108e+03,2.19992580e+01,-7.74674302e-07,3.80632727,2.29155014,-3.34509864,7.49859698e-01,4.14389316e-05,6.23214085,-3.14197958,-1,-0.9638793818237517
1.62833067e+03,2.19992278e+01,-7.63214881e-07,3.81479340,2.27675441,-3.34509871,7.49859702e-01,4.14389311e-05,6.24508960,-3.10639413,-1,-0.9629310284735291
1.66847332e+03,2.19991974e+01,-7.50276104e-07,3.82329614,2.26163688,-3.34509864,7.49859695e-01,4.14389318e-05,6.25804221,-3.07083543,-1,-0.9619623309218672
1.70951049e+03,2.19991670e+01,-7.36173873e-07,3.83182621,2.24623800,-3.34509852,7.49859692e-01,4.14389322e-05,6.27099564,-3.03531869,-1,-0.9609720473679382
1.75150777e+03,2.19991364e+01,-7.21041688e-07,3.84037512,2.23059291,-3.34509853,7.49859693e-01,4.14389321e-05,6.28394915,-2.99986515,-1,-0.9599585950345108
1.79452079e+03,2.19991058e+01,-7.05079514e-07,3.84893546,2.21473374,-3.34509853,7.49859693e-01,4.14389320e-05,6.29690224,-2.96449687,-1,-0.9589206314929015
1.83861069e+03,2.19990751e+01,-6.88429371e-07,3.85750132,2.19868330,-3.34509850,7.49859694e-01,4.14389320e-05,6.30985430,-2.92924696,-1,-0.9578566813505214
1.88382462e+03,2.19990444e+01,-6.71212484e-07,3.86607084,2.18245094,-3.34509842,7.49859694e-01,4.14389319e-05,6.32279502,-2.89418682,-1,-0.9567656068127913
1.93021048e+03,2.19990138e+01,-6.53495004e-07,3.87464169,2.16604290,-3.34509845,7.49859695e-01,4.14389318e-05,6.33571348,-2.85940022,-1,-0.955646251986597
1.97784233e+03,2.19989831e+01,-6.35326757e-07,3.88320903,2.14946378,-3.34509848,7.49859697e-01,4.14389316e-05,6.34860188,-2.82496420,-1,-0.9544968297019166
2.02681127e+03,2.19989526e+01,-6.16734936e-07,3.89176641,2.13271610,-3.34509850,7.49859698e-01,4.14389315e-05,6.36144488,-2.79095633,-1,-0.9533151415900089
2.07722726e+03,2.19989220e+01,-5.97745602e-07,3.90030486,2.11580317,-3.34509851,7.49859700e-01,4.14389313e-05,6.37421671,-2.75742880,-1,-0.9520985341643007
2.12923608e+03,2.19988915e+01,-5.78377715e-07,3.90881032,2.09873689,-3.34509852,7.49859699e-01,4.14389314e-05,6.38687329,-2.72437630,-1,-0.9508434895521781
2.18300877e+03,2.19988611e+01,-5.58677383e-07,3.91726440,2.08153900,-3.34509853,7.49859697e-01,4.14389316e-05,6.39935180,-2.69169218,-1,-0.9495458803223621
2.23866412e+03,2.19988306e+01,-5.38786936e-07,3.92565363,2.06424587,-3.34509854,7.49859697e-01,4.14389316e-05,6.41158663,-2.65911685,-1,-0.9482028399081921
2.29644683e+03,2.19988002e+01,-5.18700348e-07,3.93395113,2.04688014,-3.34509855,7.49859698e-01,4.14389315e-05,6.42348858,-2.62644698,-1,-0.9468084633609192
2.35639789e+03,2.19987698e+01,-4.98650837e-07,3.94215199,2.02949262,-3.34509855,7.49859699e-01,4.14389314e-05,6.43507099,-2.59334366,-1,-0.9453617615352666
2.41858323e+03,2.19987395e+01,-4.78835532e-07,3.95025261,2.01212768,-3.34509857,7.49859701e-01,4.14389311e-05,6.44642023,-2.55963014,-1,-0.943861143449334
2.48307420e+03,2.19987094e+01,-4.59459368e-07,3.95825374,1.99482920,-3.34509860,7.49859701e-01,4.14389312e-05,6.45768216,-2.52527292,-1,-0.9423048873291403
2.54987612e+03,2.19986794e+01,-4.40750203e-07,3.96616504,1.97764404,-3.34509861,7.49859703e-01,4.14389309e-05,6.46900932,-2.49027370,-1,-0.9406928647957423
2.61916302e+03,2.19986496e+01,-4.22746337e-07,3.97397709,1.96059901,-3.34509864,7.49859705e-01,4.14389307e-05,6.48044827,-2.45479514,-1,-0.9390208762650339
2.69099037e+03,2.19986200e+01,-4.05623023e-07,3.98169847,1.94374343,-3.34509876,7.49859702e-01,4.14389311e-05,6.49204283,-2.41880841,-1,-0.9372875831693525
2.76539295e+03,2.19985905e+01,-3.89480413e-07,3.98933516,1.92711733,-3.34509903,7.49859703e-01,4.14389310e-05,6.50379532,-2.38233053,-1,-0.9354921462192926
2.84245413e+03,2.19985612e+01,-3.74439000e-07,3.99689395,1.91076943,-3.34509870,7.49859706e-01,4.14389306e-05,6.51570274,-2.34538275,-1,-0.9336325535816821
2.92216418e+03,2.19985326e+01,-3.36246454e-07,4.00438694,1.89474317,-3.34509888,7.49859717e-01,4.14389294e-05,6.52776028,-2.30799543,-1,-0.9317090400548511
3.00446879e+03,2.19985085e+01,-2.65595810e-07,4.01183558,1.87908788,-3.34509888,7.49859718e-01,4.14389293e-05,6.53997284,-2.27016169,-1,-0.9297229162140612
3.08942541e+03,2.19984893e+01,-1.99507574e-07,4.01924321,1.86382984,-3.34509875,7.49859719e-01,4.14389293e-05,6.55230515,-2.23202240,-1,-0.9276727957115168
3.17686477e+03,2.19984752e+01,-1.37158342e-07,4.02663608,1.84899104,-3.34509887,7.49859728e-01,4.14389283e-05,6.56475631,-2.19359025,-1,-0.9255627632659539
3.26665895e+03,2.19984661e+01,-7.77539625e-08,4.03403303,1.83456964,-3.34509914,7.49859756e-01,4.14389253e-05,6.57730962,-2.15493569,-1,-0.9233959057635348
3.35867017e+03,2.19984621e+01,-2.04940840e-08,4.04145044,1.82053895,-3.34509902,7.49859794e-01,4.14389214e-05,6.58995131,-2.11611970,-1,-0.9211755480258315
3.45277710e+03,2.19984611e+01,-9.72990866e-09,4.04890104,1.80684716,-3.34509927,7.49859865e-01,4.14389141e-05,6.60267038,-2.07718772,-1,-0.9189046179132103
3.54880689e+03,2.19984602e+01,-1.00639385e-08,4.05640050,1.79342489,-3.34509954,7.49859949e-01,4.14389053e-05,6.61546929,-2.03813698,-1,-0.9165872865347487
3.64689455e+03,2.19984592e+01,-1.04405997e-08,4.06394101,1.78019138,-3.34509972,7.49860033e-01,4.14388966e-05,6.62831993,-1.99907054,-1,-0.9142202959127983
3.74696043e+03,2.19984581e+01,-1.08581598e-08,4.07153165,1.76706869,-3.34509999,7.49860116e-01,4.14388879e-05,6.64123402,-1.95994668,-1,-0.9118055681117965
3.84907258e+03,2.19984570e+01,-1.13120465e-08,4.07917316,1.75398370,-3.34510003,7.49860170e-01,4.14388823e-05,6.65421143,-1.92076966,-1,-0.9093414609913166
3.95328788e+03,2.19984558e+01,-1.17969134e-08,4.08686333,1.74087424,-3.34509998,7.49860167e-01,4.14388825e-05,6.66725431,-1.88152936,-1,-0.90682660195845
4.05970354e+03,2.19984545e+01,-1.23078613e-08,4.09459932,1.72769192,-3.34509983,7.49860114e-01,4.14388880e-05,6.68036230,-1.84222272,-1,-0.9042586452017217
4.16842935e+03,2.19984531e+01,-1.28403088e-08,4.10237732,1.71440108,-3.34509965,7.49860044e-01,4.14388951e-05,6.69353532,-1.80284197,-1,-0.9016349413368935
4.27957860e+03,2.19984516e+01,-1.33902149e-08,4.11019317,1.70097783,-3.34509950,7.49859986e-01,4.14389010e-05,6.70677259,-1.76337963,-1,-0.8989527565198958
4.39326904e+03,2.19984501e+01,-1.39541244e-08,4.11804258,1.68740774,-3.34509946,7.49859946e-01,4.14389050e-05,6.72007053,-1.72383868,-1,-0.8962092492807037
4.50961902e+03,2.19984484e+01,-1.45291530e-08,4.12592109,1.67368462,-3.34509936,7.49859920e-01,4.14389075e-05,6.73342509,-1.68421944,-1,-0.8934015636704636
4.62874691e+03,2.19984466e+01,-1.51130335e-08,4.13382427,1.65980866,-3.34509935,7.49859905e-01,4.14389088e-05,6.74683435,-1.64452201,-1,-0.8905268432576946
4.75077347e+03,2.19984448e+01,-1.57039716e-08,4.14174780,1.64578455,-3.34509933,7.49859900e-01,4.14389088e-05,6.76029413,-1.60475030,-1,-0.887582173936917
4.87582281e+03,2.19984427e+01,-1.63006089e-08,4.14968754,1.63162021,-3.34509949,7.49859903e-01,4.14389078e-05,6.77379839,-1.56491208,-1,-0.8845645607625269
5.00401666e+03,2.19984406e+01,-1.69020156e-08,4.15763964,1.61732574,-3.34509972,7.49859913e-01,4.14389060e-05,6.78734440,-1.52500968,-1,-0.8814710662216059
