star_age,star_mass,star_mdot,log_Teff,log_R,log_surf_z,surface_h1,surface_he3,log_center_T,log_center_Rho,phase,x
7.13859087e+01,7.49974796e+01,-9.52418898e-07,4.09384549,2.31546333,-3.34509850,7.49859690e-01,4.14389324e-05,6.56922864,-2.81638729,-1,-1.0
7.34629783e+01,7.49974776e+01,-9.47754360e-07,4.09524781,2.31186058,-3.34509850,7.49859690e-01,4.14389323e-05,6.57040898,-2.81293686,-1,-0.9998118396949266
7.55400479e+01,7.49974757e+01,-9.43089822e-07,4.09665012,2.30825784,-3.34509850,7.49859690e-01,4.14389323e-05,6.57158933,-2.80948643,-1,-0.9996236793898533
7.76171174e+01,7.49974737e+01,-9.38425284e-07,4.09805243,2.30465509,-3.34509850,7.49859691e-01,4.14389323e-05,6.57276968,-2.80603600,-1,-0.9994355190938389
7.97972461e+01,7.49974717e+01,-9.34069279e-07,4.09946279,2.30106467,-3.34509850,7.49859691e-01,4.14389322e-05,6.57399967,-2.80243510,-1,-0.999238022735849
8.20970254e+01,7.49974696e+01,-9.30071476e-07,4.10088249,2.29748856,-3.34509850,7.49859692e-01,4.14389321e-05,6.57528729,-2.79865952,-1,-0.9990296873123806
8.43968048e+01,7.49974675e+01,-9.26073674e-07,4.10230219,2.29391246,-3.34509851,7.49859692e-01,4.14389321e-05,6.57657491,-2.79488394,-1,-0.9988213518798533
8.66965842e+01,7.49974653e+01,-9.22075871e-07,4.10372188,2.29033635,-3.34509851,7.49859693e-01,4.14389320e-05,6.57786253,-2.79110837,-1,-0.9986130164473259
8.91638990e+01,7.49974631e+01,-9.18455488e-07,4.10516151,2.28675341,-3.34509851,7.49859693e-01,4.14389320e-05,6.57922964,-2.78709454,-1,-0.9983895040982549
9.17299855e+01,7.49974608e+01,-9.15057615e-07,4.10661290,2.28316644,-3.34509851,7.49859694e-01,4.14389319e-05,6.58064362,-2.78294025,-1,-0.9981570440888817
9.42960720e+01,7.49974584e+01,-9.11659742e-07,4.10806428,2.27957947,-3.34509851,7.49859694e-01,4.14389319e-05,6.58205760,-2.77878596,-1,-0.9979245840795087
9.68621585e+01,7.49974561e+01,-9.08261869e-07,4.10951567,2.27599251,-3.34509851,7.49859695e-01,4.14389319e-05,6.58347158,-2.77463168,-1,-0.9976921240701355
9.95676238e+01,7.49974537e+01,-9.04672615e-07,4.11098872,2.27237566,-3.34509851,7.49859695e-01,4.14389318e-05,6.58495230,-2.77027882,-1,-0.9974470378312279
1.02409077e+02,7.49974511e+01,-9.00896637e-07,4.11248292,2.26872965,-3.34509851,7.49859695e-01,4.14389318e-05,6.58649815,-2.76573223,-1,-0.9971896325420821
1.05250530e+02,7.49974486e+01,-8.97120659e-07,4.11397712,2.26508365,-3.34509851,7.49859695e-01,4.14389318e-05,6.58804400,-2.76118564,-1,-0.9969322272710543
1.08142012e+02,7.49974460e+01,-8.93577442e-07,4.11547946,2.26142761,-3.34509851,7.49859695e-01,4.14389319e-05,6.58961257,-2.75657164,-1,-0.9966702899073598
1.11267325e+02,7.49974433e+01,-8.91122146e-07,4.11701990,2.25772463,-3.34509851,7.49859695e-01,4.14389318e-05,6.59128733,-2.75164257,-1,-0.9963871699543598
1.14392638e+02,7.49974405e+01,-8.88666849e-07,4.11856033,2.25402166,-3.34509852,7.49859695e-01,4.14389318e-05,6.59296209,-2.74671349,-1,-0.9961040500013598
1.17517952e+02,7.49974377e+01,-8.86211552e-07,4.12010077,2.25031869,-3.34509852,7.49859695e-01,4.14389318e-05,6.59463685,-2.74178442,-1,-0.9958209299577705
1.20827706e+02,7.49974348e+01,-8.83968718e-07,4.12167167,2.24657190,-3.34509852,7.49859695e-01,4.14389318e-05,6.59639289,-2.73661537,-1,-0.9955211016215617
1.24292515e+02,7.49974318e+01,-8.81904497e-07,4.12326819,2.24278827,-3.34509852,7.49859695e-01,4.14389318e-05,6.59821726,-2.73124458,-1,-0.9952072269596529
1.27757324e+02,7.49974287e+01,-8.79840276e-07,4.12486472,2.23900464,-3.34509852,7.49859695e-01,4.14389318e-05,6.60004164,-2.72587379,-1,-0.9948933522977442
1.31222133e+02,7.49974257e+01,-8.77776054e-07,4.12646124,2.23522102,-3.34509852,7.49859695e-01,4.14389318e-05,6.60186601,-2.72050300,-1,-0.9945794776358354
1.34899353e+02,7.49974225e+01,-8.75583190e-07,4.12809587,2.23136949,-3.34509852,7.49859695e-01,4.14389318e-05,6.60378459,-2.71485423,-1,-0.9942463608076744
1.38711871e+02,7.49974192e+01,-8.73308384e-07,4.12975478,2.22747472,-3.34509852,7.49859695e-01,4.14389318e-05,6.60576316,-2.70902841,-1,-0.9939009874268412
1.42524388e+02,7.49974159e+01,-8.71033579e-07,4.13141369,2.22357995,-3.34509852,7.49859695e-01,4.14389318e-05,6.60774173,-2.70320258,-1,-0.9935556141365974
1.46487886e+02,7.49974124e+01,-8.69014852e-07,4.13309877,2.21964026,-3.34509852,7.49859695e-01,4.14389318e-05,6.60978466,-2.69718657,-1,-0.9931965635815088
1.50618386e+02,7.49974088e+01,-8.67279377e-07,4.13481280,2.21565089,-3.34509852,7.49859695e-01,4.14389318e-05,6.61189877,-2.69096019,-1,-0.9928223844302153
1.54748887e+02,7.49974053e+01,-8.65543903e-07,4.13652683,2.21166152,-3.34509852,7.49859696e-01,4.14389318e-05,6.61401289,-2.68473382,-1,-0.9924482051883324
1.59111081e+02,7.49974015e+01,-8.64198078e-07,4.13827817,2.20761290,-3.34509853,7.49859695e-01,4.14389318e-05,6.61622008,-2.67823261,-1,-0.9920530370370922
1.63583626e+02,7.49973977e+01,-8.63037836e-07,4.14004727,2.20353604,-3.34509853,7.49859695e-01,4.14389319e-05,6.61847159,-2.67160051,-1,-0.9916478722647349
1.68056172e+02,7.49973938e+01,-8.61877594e-07,4.14181638,2.19945919,-3.34509853,7.49859694e-01,4.14389319e-05,6.62072310,-2.66496841,-1,-0.9912427074017882
1.72764864e+02,7.49973898e+01,-8.60879959e-07,4.14362140,2.19532413,-3.34509854,7.49859693e-01,4.14389320e-05,6.62306601,-2.65806621,-1,-0.9908161502352799
1.77646545e+02,7.49973856e+01,-8.60001441e-07,4.14545272,2.19114644,-3.34509854,7.49859693e-01,4.14389320e-05,6.62547587,-2.65096616,-1,-0.9903739221143586
1.82528225e+02,7.49973814e+01,-8.59122923e-07,4.14728404,2.18696875,-3.34509854,7.49859692e-01,4.14389321e-05,6.62788573,-2.64386610,-1,-0.9899316940840266
1.87480701e+02,7.49973771e+01,-8.58262838e-07,4.14912676,2.18277041,-3.34509854,7.49859692e-01,4.14389322e-05,6.63032332,-2.63668402,-1,-0.9894830526927951
1.92781909e+02,7.49973726e+01,-8.57493557e-07,4.15102563,2.17847037,-3.34509854,7.49859692e-01,4.14389322e-05,6.63289751,-2.62909790,-1,-0.9890028199097737
1.98083118e+02,7.49973680e+01,-8.56724275e-07,4.15292450,2.17417034,-3.34509854,7.49859692e-01,4.14389321e-05,6.63547171,-2.62151179,-1,-0.9885225870361628
2.03536812e+02,7.49973634e+01,-8.56096204e-07,4.15484628,2.16983098,-3.34509854,7.49859692e-01,4.14389321e-05,6.63810311,-2.61375659,-1,-0.9880285406513827
2.09222587e+02,7.49973585e+01,-8.55683051e-07,4.15680294,2.16543178,-3.34509854,7.49859692e-01,4.14389321e-05,6.64082158,-2.60574406,-1,-0.9875134702085923
2.14908361e+02,7.49973537e+01,-8.55269898e-07,4.15875960,2.16103258,-3.34509855,7.49859692e-01,4.14389322e-05,6.64354005,-2.59773154,-1,-0.9869983998563912
2.20968882e+02,7.49973485e+01,-8.55145156e-07,4.16076618,2.15655673,-3.34509855,7.49859692e-01,4.14389321e-05,6.64638942,-2.58933136,-1,-0.9864493814314603
2.27068110e+02,7.49973433e+01,-8.55050203e-07,4.16277792,2.15207296,-3.34509856,7.49859693e-01,4.14389320e-05,6.64925231,-2.58089114,-1,-0.9858968565660481
2.33227056e+02,7.49973380e+01,-8.54992031e-07,4.16479715,2.14757791,-3.34509856,7.49859694e-01,4.14389319e-05,6.65213524,-2.57239159,-1,-0.9853389218881295
2.39820704e+02,7.49973324e+01,-8.55201600e-07,4.16687087,2.14300071,-3.34509857,7.49859695e-01,4.14389318e-05,6.65516404,-2.56346015,-1,-0.9847416078553083
2.46414352e+02,7.49973267e+01,-8.55411169e-07,4.16894458,2.13842351,-3.34509858,7.49859695e-01,4.14389317e-05,6.65819283,-2.55452871,-1,-0.984144293822487
2.53022443e+02,7.49973211e+01,-8.55637029e-07,4.17102028,2.13384298,-3.34509859,7.49859696e-01,4.14389317e-05,6.66122661,-2.54558255,-1,-0.9835456714082393
2.60119022e+02,7.49973150e+01,-8.56413962e-07,4.17316296,2.12914952,-3.34509859,7.49859696e-01,4.14389317e-05,6.66442886,-2.53613831,-1,-0.9829027972023787
2.67215602e+02,7.49973089e+01,-8.57190895e-07,4.17530564,2.12445606,-3.34509859,7.49859696e-01,4.14389317e-05,6.66763111,-2.52669408,-1,-0.9822599229059288
2.74550127e+02,7.49973026e+01,-8.58124561e-07,4.17747854,2.11971556,-3.34509859,7.49859696e-01,4.14389316e-05,6.67091180,-2.51701808,-1,-0.9815954933357457
2.82102778e+02,7.49972961e+01,-8.59201907e-07,4.17967914,2.11493195,-3.34509859,7.49859697e-01,4.14389316e-05,6.67426440,-2.50712963,-1,-0.9809113038813949
2.89788399e+02,7.49972895e+01,-8.60304296e-07,4.18189435,2.11012916,-3.34509860,7.49859697e-01,4.14389315e-05,6.67765720,-2.49712236,-1,-0.9802150687662894
2.97829705e+02,7.49972825e+01,-8.61473676e-07,4.18414861,2.10527511,-3.34509861,7.49859699e-01,4.14389314e-05,6.68115758,-2.48679727,-1,-0.9794866123919106
3.05871010e+02,7.49972756e+01,-8.62643057e-07,4.18640287,2.10042106,-3.34509862,7.49859700e-01,4.14389312e-05,6.68465795,-2.47647218,-1,-0.9787581561081212
3.14342388e+02,7.49972683e+01,-8.64111751e-07,4.18870239,2.09550988,-3.34509864,7.49859702e-01,4.14389311e-05,6.68828345,-2.46577607,-1,-0.9779907398073522
3.22967539e+02,7.49972608e+01,-8.65687465e-07,4.19101809,2.09057827,-3.34509865,7.49859704e-01,4.14389309e-05,6.69195369,-2.45494729,-1,-0.9772093933163806
3.31592691e+02,7.49972533e+01,-8.67263180e-07,4.19333379,2.08564666,-3.34509867,7.49859705e-01,4.14389307e-05,6.69562392,-2.44411851,-1,-0.9764280467348196
3.40748245e+02,7.49972453e+01,-8.69991192e-07,4.19571216,2.08062173,-3.34509867,7.49859705e-01,4.14389307e-05,6.69945333,-2.43282108,-1,-0.9755986514012421
3.49962742e+02,7.49972372e+01,-8.72847261e-07,4.19809749,2.07558642,-3.34509866,7.49859704e-01,4.14389308e-05,6.70330044,-2.42147157,-1,-0.9747639164618749
3.59498737e+02,7.49972289e+01,-8.75861195e-07,4.20051897,2.07050279,-3.34509866,7.49859704e-01,4.14389308e-05,6.70724138,-2.40984312,-1,-0.9739000572400278
3.69241783e+02,7.49972203e+01,-8.78976800e-07,4.20296373,2.06538805,-3.34509867,7.49859705e-01,4.14389307e-05,6.71124276,-2.39803503,-1,-0.9730174414106383
3.79267365e+02,7.49972114e+01,-8.82308078e-07,4.20543837,2.06023619,-3.34509867,7.49859705e-01,4.14389307e-05,6.71532232,-2.38599740,-1,-0.9721092308395249
3.89520228e+02,7.49972023e+01,-8.85812851e-07,4.20793705,2.05505449,-3.34509868,7.49859705e-01,4.14389307e-05,6.71946476,-2.37377511,-1,-0.9711804310390968
4.00119070e+02,7.49971929e+01,-8.89221332e-07,4.21046808,2.04984071,-3.34509870,7.49859706e-01,4.14389306e-05,6.72369510,-2.36129459,-1,-0.9702202892392532
4.10928532e+02,7.49971832e+01,-8.92571195e-07,4.21301880,2.04460742,-3.34509872,7.49859708e-01,4.14389303e-05,6.72797896,-2.34865688,-1,-0.9692410675186142
4.22018136e+02,7.49971732e+01,-8.96166629e-07,4.21559528,2.03934909,-3.34509875,7.49859711e-01,4.14389300e-05,6.73233145,-2.33581715,-1,-0.9682364679270633
4.33491600e+02,7.49971629e+01,-9.00098554e-07,4.21820707,2.03405646,-3.34509877,7.49859715e-01,4.14389296e-05,6.73677798,-2.32270063,-1,-0.9671970947223867
4.44965065e+02,7.49971525e+01,-9.04030479e-07,4.22081886,2.02876383,-3.34509880,7.49859719e-01,4.14389292e-05,6.74122452,-2.30958411,-1,-0.9661577214271209
4.57064310e+02,7.49971414e+01,-9.10227230e-07,4.22349758,2.02338667,-3.34509879,7.49859719e-01,4.14389292e-05,6.74583316,-2.29599209,-1,-0.9650616591524829
4.69207042e+02,7.49971303e+01,-9.16581369e-07,4.22618095,2.01800363,-3.34509879,7.49859718e-01,4.14389293e-05,6.75045306,-2.28236703,-1,-0.9639616574204541
4.81887246e+02,7.49971185e+01,-9.23145885e-07,4.22891856,2.01255901,-3.34509878,7.49859719e-01,4.14389292e-05,6.75520430,-2.26835490,-1,-0.9628129664699764
4.94659630e+02,7.49971066e+01,-9.29758007e-07,4.23166541,2.00710408,-3.34509877,7.49859720e-01,4.14389290e-05,6.75997780,-2.25427723,-1,-0.9616559249967613
5.07984365e+02,7.49970941e+01,-9.36822710e-07,4.23446639,2.00159109,-3.34509876,7.49859721e-01,4.14389290e-05,6.76488066,-2.23981920,-1,-0.9604488464267309
5.21500913e+02,7.49970813e+01,-9.43703799e-07,4.23728445,1.99606305,-3.34509877,7.49859723e-01,4.14389288e-05,6.76982457,-2.22524189,-1,-0.959224391649087
5.35456651e+02,7.49970680e+01,-9.50164469e-07,4.24014161,1.99050052,-3.34509879,7.49859728e-01,4.14389282e-05,6.77486246,-2.21039148,-1,-0.9579601509517103
5.49643243e+02,7.49970543e+01,-9.56870513e-07,4.24301947,1.98491821,-3.34509882,7.49859733e-01,4.14389277e-05,6.77994751,-2.19540247,-1,-0.9566749973494086
5.64349701e+02,7.49970401e+01,-9.64129120e-07,4.24594393,1.97929131,-3.34509884,7.49859738e-01,4.14389272e-05,6.78513873,-2.18010136,-1,-0.9553427494440767
5.79081664e+02,7.49970257e+01,-9.71526735e-07,4.24887104,1.97366104,-3.34509885,7.49859742e-01,4.14389268e-05,6.79033560,-2.16478382,-1,-0.954008191058354
5.94537377e+02,7.49970104e+01,-9.82868930e-07,4.25187356,1.96793481,-3.34509883,7.49859742e-01,4.14389268e-05,6.79569278,-2.14899982,-1,-0.9526080686584083
6.10107558e+02,7.49969949e+01,-9.94217209e-07,4.25488756,1.96219460,-3.34509881,7.49859742e-01,4.14389268e-05,6.80107370,-2.13314656,-1,-0.9511975766811498
6.26230249e+02,7.49969786e+01,-1.00559486e-06,4.25795696,1.95638688,-3.34509880,7.49859743e-01,4.14389267e-05,6.80656923,-2.11695901,-1,-0.9497370332033753
6.42666828e+02,7.49969618e+01,-1.01719713e-06,4.26105638,1.95054239,-3.34509879,7.49859745e-01,4.14389264e-05,6.81212456,-2.10059815,-1,-0.9482480548277818
6.59425971e+02,7.49969446e+01,-1.02903024e-06,4.26418668,1.94466013,-3.34509879,7.49859749e-01,4.14389261e-05,6.81774134,-2.08405919,-1,-0.9467298556015026
6.76810766e+02,7.49969264e+01,-1.03958392e-06,4.26737529,1.93870796,-3.34509882,7.49859755e-01,4.14389254e-05,6.82347088,-2.06719259,-1,-0.9451549789912832
6.94327526e+02,7.49969079e+01,-1.05008958e-06,4.27057602,1.93274021,-3.34509885,7.49859761e-01,4.14389248e-05,6.82922295,-2.05026080,-1,-0.943568147762567
7.12592727e+02,7.49968883e+01,-1.06142179e-06,4.27384450,1.92668010,-3.34509888,7.49859764e-01,4.14389244e-05,6.83509655,-2.03297873,-1,-0.9419135157789367
7.30857928e+02,7.49968687e+01,-1.07275399e-06,4.27711298,1.92062000,-3.34509891,7.49859768e-01,4.14389240e-05,6.84097016,-2.01569667,-1,-0.9402588837953063
7.49926097e+02,7.49968477e+01,-1.08995546e-06,4.28046558,1.91442608,-3.34509878,7.49859746e-01,4.14389262e-05,6.84699367,-1.99797848,-1,-0.9385315114933716
7.69206072e+02,7.49968263e+01,-1.10703754e-06,4.28383911,1.90819829,-3.34509868,7.49859730e-01,4.14389279e-05,6.85305299,-1.98015724,-1,-0.9367849518317181
7.88990289e+02,7.49968040e+01,-1.12375580e-06,4.28726244,1.90188995,-3.34509866,7.49859726e-01,4.14389283e-05,6.85919736,-1.96209123,-1,-0.9349927132344377
8.09288291e+02,7.49967808e+01,-1.14057347e-06,4.29073394,1.89549997,-3.34509864,7.49859724e-01,4.14389285e-05,6.86541989,-1.94380010,-1,-0.9331539312077306
8.29958193e+02,7.49967568e+01,-1.15754669e-06,4.29424040,1.88904892,-3.34509863,7.49859723e-01,4.14389286e-05,6.87169832,-1.92534755,-1,-0.9312814590160637
8.51072606e+02,7.49967320e+01,-1.17478162e-06,4.29778873,1.88252309,-3.34509863,7.49859722e-01,4.14389287e-05,6.87804294,-1.90670346,-1,-0.9293687188789373
8.72858330e+02,7.49967058e+01,-1.18982697e-06,4.30139589,1.87588510,-3.34509862,7.49859722e-01,4.14389286e-05,6.88447649,-1.88780136,-1,-0.9273951651404954
8.94970469e+02,7.49966791e+01,-1.20492871e-06,4.30502991,1.86919130,-3.34509862,7.49859723e-01,4.14389285e-05,6.89094850,-1.86878898,-1,-0.9253920416919288
9.17662162e+02,7.49966512e+01,-1.22045959e-06,4.30871109,1.86239801,-3.34509863,7.49859724e-01,4.14389284e-05,6.89748742,-1.84958522,-1,-0.9233364168455053
9.40749317e+02,7.49966225e+01,-1.23928263e-06,4.31242839,1.85552741,-3.34509862,7.49859725e-01,4.14389283e-05,6.90408034,-1.83022503,-1,-0.9212449673687635
9.64287007e+02,7.49965927e+01,-1.26185631e-06,4.31618685,1.84856874,-3.34509861,7.49859724e-01,4.14389284e-05,6.91073477,-1.81068661,-1,-0.9191127042365496
9.88529903e+02,7.49965615e+01,-1.28310335e-06,4.32000542,1.84147708,-3.34509861,7.49859724e-01,4.14389284e-05,6.91747527,-1.79089704,-1,-0.9169165569783057
1.01321805e+03,7.49965292e+01,-1.30399565e-06,4.32385989,1.83430265,-3.34509860,7.49859724e-01,4.14389284e-05,6.92426624,-1.77096156,-1,-0.9146800747385117
1.03839946e+03,7.49964958e+01,-1.32464813e-06,4.32775306,1.82703704,-3.34509860,7.49859724e-01,4.14389284e-05,6.93111121,-1.75087010,-1,-0.9123989081431421
1.06409960e+03,7.49964612e+01,-1.34516432e-06,4.33168539,1.81967638,-3.34509860,7.49859724e-01,4.14389283e-05,6.93801024,-1.73062245,-1,-0.9100707501542002
1.09055641e+03,7.49964249e+01,-1.36243264e-06,4.33566618,1.81218648,-3.34509861,7.49859726e-01,4.14389281e-05,6.94497330,-1.71018878,-1,-0.9076740459508996
1.11752453e+03,7.49963875e+01,-1.37980003e-06,4.33967700,1.80461205,-3.34509862,7.49859729e-01,4.14389278e-05,6.95197624,-1.68963893,-1,-0.9052310225267182
1.14490371e+03,7.49963492e+01,-1.39724706e-06,4.34371198,1.79696967,-3.34509863,7.49859731e-01,4.14389275e-05,6.95901123,-1.66899567,-1,-0.9027507614601373
1.17306310e+03,7.49963090e+01,-1.42083769e-06,4.34779870,1.78919251,-3.34509863,7.49859731e-01,4.14389275e-05,6.96612176,-1.64813186,-1,-0.9001998217068041
1.20172545e+03,7.49962675e+01,-1.44446260e-06,4.35191588,1.78133380,-3.34509863,7.49859731e-01,4.14389276e-05,6.97327630,-1.62713919,-1,-0.8976033191533415
1.23097530e+03,7.49962332e+01,-1.22539189e-06,4.35606706,1.77338319,-3.34509864,7.49859736e-01,4.14389270e-05,6.98048017,-1.60600252,-1,-0.8949535953793524
1.26083999e+03,7.49962317e+01,-4.89552418e-08,4.36025254,1.76534005,-3.34509872,7.49859760e-01,4.14389241e-05,6.98773493,-1.58471888,-1,-0.8922481736730592
1.29147044e+03,7.49962301e+01,-5.22980663e-08,4.36447214,1.75719151,-3.34509878,7.49859782e-01,4.14389217e-05,6.99503900,-1.56328761,-1,-0.8894733822955654
1.32281891e+03,7.49962284e+01,-5.53086990e-08,4.36871744,1.74895703,-3.34509883,7.49859798e-01,4.14389198e-05,7.00238149,-1.54174343,-1,-0.8866335459806036
1.35480159e+03,7.49962265e+01,-5.83524644e-08,4.37298317,1.74065296,-3.34509886,7.49859813e-01,4.14389181e-05,7.00975611,-1.52010317,-1,-0.8837362570183734
1.38731437e+03,7.49962244e+01,-6.14982652e-08,4.37726547,1.73229216,-3.34509889,7.49859826e-01,4.14389165e-05,7.01715716,-1.49838343,-1,-0.8807909466620988
1.42074049e+03,7.49962222e+01,-6.60661367e-08,4.38158565,1.72382523,-3.34509891,7.49859839e-01,4.14389151e-05,7.02462482,-1.47646734,-1,-0.8777628974640271
1.45480784e+03,7.49962198e+01,-7.07058781e-08,4.38592704,1.71529453,-3.34509892,7.49859846e-01,4.14389143e-05,7.03212928,-1.45444180,-1,-0.8746767596817202
1.48959923e+03,7.49962171e+01,-7.53150199e-08,4.39029022,1.70669664,-3.34509892,7.49859853e-01,4.14389134e-05,7.03967256,-1.43229935,-1,-0.8715250316142898
1.52517649e+03,7.49962143e+01,-7.97656075e-08,4.39467291,1.69803462,-3.34509896,7.49859868e-01,4.14389117e-05,7.04725296,-1.41004371,-1,-0.8683021121246037
1.56146303e+03,7.49962112e+01,-8.37336074e-08,4.39906826,1.68932467,-3.34509900,7.49859885e-01,4.14389098e-05,7.05485977,-1.38770721,-1,-0.8650149394480324
1.59886895e+03,7.49962079e+01,-8.78994169e-08,4.40348043,1.68055155,-3.34509904,7.49859900e-01,4.14389080e-05,7.06250528,-1.36524616,-1,-0.8616263629079156
1.63680407e+03,7.49962043e+01,-9.28981350e-08,4.40790511,1.67174301,-3.34509906,7.49859912e-01,4.14389065e-05,7.07017675,-1.34269752,-1,-0.8581898465041347
1.67555782e+03,7.49962005e+01,-9.90447377e-08,4.41234928,1.66288021,-3.34509907,7.49859923e-01,4.14389053e-05,7.07788873,-1.32001124,-1,-0.8546791709722521
1.71520337e+03,7.49961963e+01,-1.04955981e-07,4.41681077,1.65396682,-3.34509907,7.49859934e-01,4.14389040e-05,7.08563884,-1.29719279,-1,-0.8510877078923431
1.75582242e+03,7.49961918e+01,-1.10837512e-07,4.42128771,1.64500625,-3.34509908,7.49859943e-01,4.14389030e-05,7.09342623,-1.27424425,-1,-0.8474080561176552
1.79743416e+03,7.49961869e+01,-1.15932519e-07,4.42577238,1.63601544,-3.34509910,7.49859952e-01,4.14389019e-05,7.10123974,-1.25119931,-1,-0.8436384772393001
1.83996553e+03,7.49961817e+01,-1.21026922e-07,4.43026307,1.62700241,-3.34509913,7.49859962e-01,4.14389008e-05,7.10907647,-1.22806778,-1,-0.8397855897123784
1.88316091e+03,7.49961762e+01,-1.26390747e-07,4.43475898,1.61797240,-3.34509916,7.49859970e-01,4.14388998e-05,7.11693161,-1.20486942,-1,-0.8358725499767046
1.92755258e+03,7.49961702e+01,-1.33928318e-07,4.43927418,1.60889544,-3.34509915,7.49859977e-01,4.14388991e-05,7.12483722,-1.18150548,-1,-0.8318511391535353
