star_age,star_mass,star_mdot,log_Teff,log_R,log_surf_z,surface_h1,surface_he3,log_center_T,log_center_Rho,phase,x
3.87024407e+02,2.24998359e+02,-4.20265055e-06,4.63443988,1.57261987,-3.34509852,7.49859713e-01,4.14412267e-05,7.41201415,-6.90493358e-01,-1,-1.0
3.92942137e+02,2.24998334e+02,-4.20492896e-06,4.63490725,1.57170387,-3.34509852,7.49859713e-01,4.14414756e-05,7.41291206,-6.87797285e-01,-1,-0.9989355439013008
3.98859867e+02,2.24998309e+02,-4.20720737e-06,4.63537463,1.57078787,-3.34509852,7.49859713e-01,4.14417246e-05,7.41380998,-6.85101212e-01,-1,-0.9978710878026017
4.04777597e+02,2.24998284e+02,-4.20948577e-06,4.63584200,1.56987188,-3.34509852,7.49859714e-01,4.14419736e-05,7.41470789,-6.82405139e-01,-1,-0.9968066317039025
4.10695326e+02,2.24998259e+02,-4.21176418e-06,4.63630937,1.56895588,-3.34509852,7.49859714e-01,4.14422225e-05,7.41560580,-6.79709067e-01,-1,-0.9957421757850791
4.16613056e+02,2.24998234e+02,-4.21404259e-06,4.63677675,1.56803988,-3.34509852,7.49859714e-01,4.14424715e-05,7.41650371,-6.77012994e-01,-1,-0.99467771968638
4.22530786e+02,2.24998209e+02,-4.21632100e-06,4.63724412,1.56712389,-3.34509852,7.49859714e-01,4.14427204e-05,7.41740163,-6.74316921e-01,-1,-0.9936132635876808
4.28448515e+02,2.24998184e+02,-4.21859940e-06,4.63771149,1.56620789,-3.34509852,7.49859714e-01,4.14429694e-05,7.41829954,-6.71620848e-01,-1,-0.9925488076688573
4.34366245e+02,2.24998159e+02,-4.22087781e-06,4.63817887,1.56529190,-3.34509852,7.49859714e-01,4.14432183e-05,7.41919745,-6.68924775e-01,-1,-0.9914843515701582
4.40283975e+02,2.24998134e+02,-4.22315622e-06,4.63864624,1.56437590,-3.34509852,7.49859714e-01,4.14434673e-05,7.42009537,-6.66228702e-01,-1,-0.990419895471459
4.46201704e+02,2.24998109e+02,-4.22543463e-06,4.63911362,1.56345990,-3.34509852,7.49859715e-01,4.14437162e-05,7.42099328,-6.63532629e-01,-1,-0.9893554395526356
4.52119434e+02,2.24998084e+02,-4.22771303e-06,4.63958099,1.56254391,-3.34509852,7.49859715e-01,4.14439652e-05,7.42189119,-6.60836556e-01,-1,-0.9882909834539365
4.58037164e+02,2.24998059e+02,-4.22999144e-06,4.64004836,1.56162791,-3.34509852,7.49859715e-01,4.14442141e-05,7.42278910,-6.58140483e-01,-1,-0.9872265273552373
4.63954894e+02,2.24998034e+02,-4.23226985e-06,4.64051574,1.56071191,-3.34509852,7.49859715e-01,4.14444631e-05,7.42368702,-6.55444410e-01,-1,-0.9861620712565382
4.70806153e+02,2.24998005e+02,-4.23502147e-06,4.64104203,1.55967701,-3.34509852,7.49859715e-01,4.14449305e-05,7.42470133,-6.52397902e-01,-1,-0.9849296959325005
4.77738772e+02,2.24997975e+02,-4.23781432e-06,4.64157347,1.55863175,-3.34509852,7.49859715e-01,4.14454170e-05,7.42572580,-6.49320853e-01,-1,-0.9836826859177639
4.84671391e+02,2.24997946e+02,-4.24060718e-06,4.64210490,1.55758649,-3.34509852,7.49859715e-01,4.14459035e-05,7.42675026,-6.46243804e-01,-1,-0.9824356759030272
4.91604011e+02,2.24997916e+02,-4.24340004e-06,4.64263634,1.55654123,-3.34509852,7.49859716e-01,4.14463900e-05,7.42777472,-6.43166755e-01,-1,-0.9811886657084147
4.98536630e+02,2.24997886e+02,-4.24619290e-06,4.64316777,1.55549597,-3.34509852,7.49859716e-01,4.14468765e-05,7.42879918,-6.40089706e-01,-1,-0.9799416556936781
5.05469249e+02,2.24997857e+02,-4.24898576e-06,4.64369921,1.55445070,-3.34509852,7.49859716e-01,4.14473630e-05,7.42982364,-6.37012657e-01,-1,-0.9786946456789414
5.12401869e+02,2.24997827e+02,-4.25177862e-06,4.64423064,1.55340544,-3.34509852,7.49859716e-01,4.14478495e-05,7.43084810,-6.33935608e-01,-1,-0.977447635484329
5.19334488e+02,2.24997798e+02,-4.25457148e-06,4.64476207,1.55236018,-3.34509852,7.49859716e-01,4.14483360e-05,7.43187257,-6.30858558e-01,-1,-0.9762006254695923
5.26267108e+02,2.24997768e+02,-4.25736434e-06,4.64529351,1.55131492,-3.34509852,7.49859716e-01,4.14488224e-05,7.43289703,-6.27781509e-01,-1,-0.9749536152749798
5.33199727e+02,2.24997739e+02,-4.26015719e-06,4.64582494,1.55026965,-3.34509852,7.49859716e-01,4.14493089e-05,7.43392149,-6.24704460e-01,-1,-0.9737066052602432
5.40960181e+02,2.24997706e+02,-4.26220535e-06,4.64640891,1.54911957,-3.34509852,7.49859716e-01,4.14501088e-05,7.43504646,-6.21326234e-01,-1,-0.9723106878072715
5.48826621e+02,2.24997672e+02,-4.26415816e-06,4.64699959,1.54795607,-3.34509852,7.49859716e-01,4.14509487e-05,7.43618431,-6.17909448e-01,-1,-0.9708957060434784
5.56693062e+02,2.24997638e+02,-4.26611097e-06,4.64759028,1.54679256,-3.34509852,7.49859716e-01,4.14517887e-05,7.43732215,-6.14492663e-01,-1,-0.9694807240998097
5.64559502e+02,2.24997605e+02,-4.26806378e-06,4.64818097,1.54562906,-3.34509852,7.49859716e-01,4.14526286e-05,7.43845999,-6.11075877e-01,-1,-0.9680657423360166
5.72425943e+02,2.24997571e+02,-4.27001659e-06,4.64877166,1.54446556,-3.34509852,7.49859716e-01,4.14534686e-05,7.43959783,-6.07659092e-01,-1,-0.9666507603923478
5.80292383e+02,2.24997537e+02,-4.27196940e-06,4.64936235,1.54330205,-3.34509852,7.49859716e-01,4.14543085e-05,7.44073567,-6.04242306e-01,-1,-0.9652357786285548
5.88158824e+02,2.24997504e+02,-4.27392222e-06,4.64995303,1.54213855,-3.34509852,7.49859716e-01,4.14551485e-05,7.44187351,-6.00825521e-01,-1,-0.963820796684886
5.96025264e+02,2.24997470e+02,-4.27587503e-06,4.65054372,1.54097504,-3.34509852,7.49859716e-01,4.14559885e-05,7.44301136,-5.97408735e-01,-1,-0.9624058149210929
6.04243022e+02,2.24997435e+02,-4.27756718e-06,4.65115537,1.53976946,-3.34509853,7.49859716e-01,4.14570278e-05,7.44418953,-5.93870775e-01,-1,-0.9609276395699475
6.13015977e+02,2.24997397e+02,-4.27884740e-06,4.65180014,1.53849737,-3.34509853,7.49859716e-01,4.14583822e-05,7.44543145,-5.90141319e-01,-1,-0.9593495977442199
6.21788932e+02,2.24997360e+02,-4.28012763e-06,4.65244491,1.53722528,-3.34509853,7.49859716e-01,4.14597366e-05,7.44667337,-5.86411864e-01,-1,-0.9577715559184922
6.30561887e+02,2.24997322e+02,-4.28140785e-06,4.65308968,1.53595319,-3.34509853,7.49859716e-01,4.14610910e-05,7.44791530,-5.82682408e-01,-1,-0.9561935140927645
6.39334842e+02,2.24997284e+02,-4.28268807e-06,4.65373445,1.53468111,-3.34509853,7.49859716e-01,4.14624455e-05,7.44915722,-5.78952952e-01,-1,-0.9546154722670369
6.48107797e+02,2.24997247e+02,-4.28396829e-06,4.65437922,1.53340902,-3.34509853,7.49859716e-01,4.14637999e-05,7.45039914,-5.75223497e-01,-1,-0.9530374304413093
6.56880752e+02,2.24997209e+02,-4.28524852e-06,4.65502399,1.53213693,-3.34509853,7.49859715e-01,4.14651543e-05,7.45164106,-5.71494041e-01,-1,-0.9514593886155817
6.65653707e+02,2.24997172e+02,-4.28652874e-06,4.65566876,1.53086484,-3.34509853,7.49859715e-01,4.14665087e-05,7.45288298,-5.67764585e-01,-1,-0.9498813467898539
6.75235202e+02,2.24997131e+02,-4.28713825e-06,4.65636024,1.52949978,-3.34509853,7.49859715e-01,4.14686014e-05,7.45421259,-5.63772315e-01,-1,-0.9481578682284114
6.84992570e+02,2.24997089e+02,-4.28760186e-06,4.65706188,1.52811449,-3.34509853,7.49859714e-01,4.14708548e-05,7.45556127,-5.59722877e-01,-1,-0.946402754379883
6.94749938e+02,2.24997047e+02,-4.28806548e-06,4.65776352,1.52672920,-3.34509853,7.49859714e-01,4.14731081e-05,7.45690995,-5.55673439e-01,-1,-0.9446476405313546
7.04507306e+02,2.24997005e+02,-4.28852909e-06,4.65846516,1.52534391,-3.34509853,7.49859714e-01,4.14753614e-05,7.45825863,-5.51624001e-01,-1,-0.9428925266828262
7.14264674e+02,2.24996963e+02,-4.28899271e-06,4.65916679,1.52395862,-3.34509853,7.49859713e-01,4.14776147e-05,7.45960731,-5.47574563e-01,-1,-0.9411374128342977
7.24022041e+02,2.24996921e+02,-4.28945632e-06,4.65986843,1.52257333,-3.34509853,7.49859713e-01,4.14798680e-05,7.46095599,-5.43525125e-01,-1,-0.9393822991656451
7.33779409e+02,2.24996879e+02,-4.28991994e-06,4.66057007,1.52118804,-3.34509853,7.49859712e-01,4.14821213e-05,7.46230467,-5.39475687e-01,-1,-0.9376271853171168
7.43536777e+02,2.24996837e+02,-4.29038355e-06,4.66127171,1.51980275,-3.34509853,7.49859712e-01,4.14843746e-05,7.46365335,-5.35426249e-01,-1,-0.9358720714685883
7.54067653e+02,2.24996792e+02,-4.29039656e-06,4.66201289,1.51833757,-3.34509853,7.49859711e-01,4.14877626e-05,7.46507865,-5.31146884e-01,-1,-0.9339778222914807
7.65000718e+02,2.24996745e+02,-4.29017527e-06,4.66277463,1.51683085,-3.34509853,7.49859710e-01,4.14917405e-05,7.46654377,-5.26747968e-01,-1,-0.9320112290679433
7.75933783e+02,2.24996699e+02,-4.28995397e-06,4.66353638,1.51532413,-3.34509853,7.49859709e-01,4.14957185e-05,7.46800890,-5.22349051e-01,-1,-0.9300446358444059
7.86866848e+02,2.24996652e+02,-4.28973268e-06,4.66429812,1.51381741,-3.34509853,7.49859708e-01,4.14996964e-05,7.46947403,-5.17950134e-01,-1,-0.9280780426208683
7.97799912e+02,2.24996605e+02,-4.28951139e-06,4.66505986,1.51231069,-3.34509853,7.49859707e-01,4.15036743e-05,7.47093915,-5.13551217e-01,-1,-0.9261114495772067
8.08732977e+02,2.24996558e+02,-4.28929010e-06,4.66582160,1.51080397,-3.34509853,7.49859706e-01,4.15076523e-05,7.47240428,-5.09152301e-01,-1,-0.9241448563536692
8.19666042e+02,2.24996511e+02,-4.28906881e-06,4.66658334,1.50929725,-3.34509853,7.49859705e-01,4.15116302e-05,7.47386941,-5.04753384e-01,-1,-0.9221782631301317
8.30599107e+02,2.24996464e+02,-4.28884752e-06,4.66734508,1.50779053,-3.34509853,7.49859704e-01,4.15156082e-05,7.47533453,-5.00354467e-01,-1,-0.9202116699065943
8.41532172e+02,2.24996417e+02,-4.28862623e-06,4.66810682,1.50628381,-3.34509853,7.49859703e-01,4.15195861e-05,7.47679966,-4.95955551e-01,-1,-0.9182450766830569
8.53558770e+02,2.24996366e+02,-4.28702731e-06,4.66891657,1.50467683,-3.34509854,7.49859702e-01,4.15256459e-05,7.47836607,-4.91250215e-01,-1,-0.9160817833953092
8.65686647e+02,2.24996314e+02,-4.28530080e-06,4.66973076,1.50306057,-3.34509854,7.49859700e-01,4.15318986e-05,7.47994186,-4.86516500e-01,-1,-0.9139002724718768
8.77814523e+02,2.24996262e+02,-4.28357430e-06,4.67054496,1.50144431,-3.34509854,7.49859699e-01,4.15381512e-05,7.48151765,-4.81782785e-01,-1,-0.9117187617283202
8.89942400e+02,2.24996210e+02,-4.28184779e-06,4.67135915,1.49982805,-3.34509854,7.49859697e-01,4.15444038e-05,7.48309344,-4.77049070e-01,-1,-0.9095372508048879
9.02070277e+02,2.24996158e+02,-4.28012129e-06,4.67217335,1.49821179,-3.34509854,7.49859695e-01,4.15506565e-05,7.48466924,-4.72315355e-01,-1,-0.9073557398814556
9.14198154e+02,2.24996106e+02,-4.27839478e-06,4.67298754,1.49659553,-3.34509854,7.49859694e-01,4.15569091e-05,7.48624503,-4.67581639e-01,-1,-0.9051742289580232
9.26474207e+02,2.24996054e+02,-4.27646486e-06,4.67380881,1.49496521,-3.34509854,7.49859692e-01,4.15635573e-05,7.48783434,-4.62807437e-01,-1,-0.9029660647660435
9.39662908e+02,2.24995998e+02,-4.27328206e-06,4.67467367,1.49324823,-3.34509854,7.49859689e-01,4.15726413e-05,7.48950694,-4.57783864e-01,-1,-0.9005937373341786
9.52851610e+02,2.24995942e+02,-4.27009926e-06,4.67553853,1.49153125,-3.34509854,7.49859687e-01,4.15817254e-05,7.49117953,-4.52760291e-01,-1,-0.898221409722438
9.66040311e+02,2.24995885e+02,-4.26691646e-06,4.67640340,1.48981427,-3.34509854,7.49859684e-01,4.15908094e-05,7.49285213,-4.47736718e-01,-1,-0.8958490822905731
9.79229012e+02,2.24995829e+02,-4.26373365e-06,4.67726826,1.48809729,-3.34509854,7.49859681e-01,4.15998934e-05,7.49452473,-4.42713146e-01,-1,-0.8934767548587083
9.92417713e+02,2.24995773e+02,-4.26055085e-06,4.67813312,1.48638031,-3.34509854,7.49859679e-01,4.16089775e-05,7.49619732,-4.37689573e-01,-1,-0.8911044274268434
1.00587387e+03,2.24995716e+02,-4.25708987e-06,4.67900939,1.48464041,-3.34509854,7.49859676e-01,4.16190221e-05,7.49789210,-4.32599237e-01,-1,-0.8886839911474418
1.02008062e+03,2.24995656e+02,-4.25284818e-06,4.67991770,1.48283617,-3.34509854,7.49859672e-01,4.16317626e-05,7.49964915,-4.27321532e-01,-1,-0.8861285413921819
1.03428738e+03,2.24995596e+02,-4.24860648e-06,4.68082601,1.48103193,-3.34509854,7.49859669e-01,4.16445030e-05,7.50140620,-4.22043827e-01,-1,-0.8835730898381645
1.04849413e+03,2.24995535e+02,-4.24436478e-06,4.68173432,1.47922770,-3.34509854,7.49859665e-01,4.16572435e-05,7.50316325,-4.16766121e-01,-1,-0.8810176400829046
1.06270089e+03,2.24995475e+02,-4.24012309e-06,4.68264263,1.47742346,-3.34509854,7.49859661e-01,4.16699840e-05,7.50492030,-4.11488416e-01,-1,-0.8784621885288872
1.07690765e+03,2.24995415e+02,-4.23588139e-06,4.68355094,1.47561923,-3.34509854,7.49859657e-01,4.16827244e-05,7.50667735,-4.06210711e-01,-1,-0.8759067369748698
1.09208920e+03,2.24995351e+02,-4.23139942e-06,4.68449859,1.47373747,-3.34509855,7.49859652e-01,4.17005946e-05,7.50850687,-4.00716649e-01,-1,-0.873175944342356
1.10739973e+03,2.24995287e+02,-4.22688566e-06,4.68545145,1.47184546,-3.34509855,7.49859646e-01,4.17191434e-05,7.51034598,-3.95193961e-01,-1,-0.870421951336116
1.12271025e+03,2.24995222e+02,-4.22237190e-06,4.68640431,1.46995344,-3.34509855,7.49859641e-01,4.17376923e-05,7.51218509,-3.89671273e-01,-1,-0.8676679601286335
1.13802078e+03,2.24995158e+02,-4.21785814e-06,4.68735716,1.46806143,-3.34509855,7.49859635e-01,4.17562412e-05,7.51402420,-3.84148586e-01,-1,-0.8649139671223935
1.15333130e+03,2.24995093e+02,-4.21334438e-06,4.68831002,1.46616942,-3.34509855,7.49859629e-01,4.17747900e-05,7.51586331,-3.78625898e-01,-1,-0.862159975914911
1.16864183e+03,2.24995029e+02,-4.20883062e-06,4.68926288,1.46427740,-3.34509855,7.49859624e-01,4.17933389e-05,7.51770242,-3.73103211e-01,-1,-0.8594059829086711
1.18513639e+03,2.24994960e+02,-4.20336036e-06,4.69025276,1.46230970,-3.34509855,7.49859615e-01,4.18206089e-05,7.51961473,-3.67360341e-01,-1,-0.8564390116228302
1.20177270e+03,2.24994891e+02,-4.19777558e-06,4.69124707,1.46033293,-3.34509855,7.49859606e-01,4.18489231e-05,7.52153581,-3.61591110e-01,-1,-0.853446542949986
1.21840902e+03,2.24994821e+02,-4.19219080e-06,4.69224138,1.45835616,-3.34509855,7.49859597e-01,4.18772373e-05,7.52345688,-3.55821879e-01,-1,-0.8504540724783844
1.23504533e+03,2.24994752e+02,-4.18660602e-06,4.69323570,1.45637939,-3.34509855,7.49859589e-01,4.19055514e-05,7.52537796,-3.50052648e-01,-1,-0.8474616038055404
1.25168164e+03,2.24994683e+02,-4.18102124e-06,4.69423001,1.45440262,-3.34509855,7.49859580e-01,4.19338656e-05,7.52729903,-3.44283417e-01,-1,-0.8444691351326963
1.26831796e+03,2.24994613e+02,-4.17543646e-06,4.69522432,1.45242585,-3.34509855,7.49859571e-01,4.19621798e-05,7.52922011,-3.38514187e-01,-1,-0.8414766646610947
1.28533108e+03,2.24994542e+02,-4.16873669e-06,4.69622725,1.45042989,-3.34509855,7.49859561e-01,4.19936139e-05,7.53116189,-3.32682408e-01,-1,-0.8384164170083798
1.30332370e+03,2.24994468e+02,-4.15913855e-06,4.69725259,1.44838406,-3.34509855,7.49859549e-01,4.20331578e-05,7.53315747,-3.26688043e-01,-1,-0.8351799810624045
1.32131632e+03,2.24994394e+02,-4.14954041e-06,4.69827792,1.44633823,-3.34509855,7.49859536e-01,4.20727017e-05,7.53515306,-3.20693678e-01,-1,-0.8319435451164292
1.33930893e+03,2.24994320e+02,-4.13994227e-06,4.69930326,1.44429240,-3.34509856,7.49859524e-01,4.21122457e-05,7.53714865,-3.14699312e-01,-1,-0.8287071109692113
1.35730155e+03,2.24994246e+02,-4.13034413e-06,4.70032859,1.44224657,-3.34509856,7.49859511e-01,4.21517896e-05,7.53914424,-3.08704947e-01,-1,-0.825470675023236
1.37529416e+03,2.24994172e+02,-4.12074600e-06,4.70135392,1.44020074,-3.34509856,7.49859499e-01,4.21913335e-05,7.54113982,-3.02710581e-01,-1,-0.8222342408760182
1.39449478e+03,2.24994094e+02,-4.11018633e-06,4.70241327,1.43808746,-3.34509856,7.49859482e-01,4.22433264e-05,7.54319933,-2.96524723e-01,-1,-0.818780515028809
1.41369722e+03,2.24994015e+02,-4.09962522e-06,4.70347267,1.43597408,-3.34509856,7.49859465e-01,4.22953380e-05,7.54525893,-2.90338577e-01,-1,-0.815326461807742
1.43289966e+03,2.24993937e+02,-4.08906411e-06,4.70453207,1.43386071,-3.34509856,7.49859449e-01,4.23473496e-05,7.54731853,-2.84152431e-01,-1,-0.8118724085866751
1.45210209e+03,2.24993859e+02,-4.07850300e-06,4.70559146,1.43174733,-3.34509856,7.49859432e-01,4.23993611e-05,7.54937813,-2.77966285e-01,-1,-0.8084183571643655
1.47169290e+03,2.24993780e+02,-4.06826816e-06,4.70666039,1.42961543,-3.34509856,7.49859414e-01,4.24568584e-05,7.55145400,-2.71731745e-01,-1,-0.8048944455998033
1.49218773e+03,2.24993697e+02,-4.05879282e-06,4.70775149,1.42744039,-3.34509856,7.49859391e-01,4.25271250e-05,7.55356773,-2.65384553e-01,-1,-0.801207922763293
1.51268256e+03,2.24993615e+02,-4.04931748e-06,4.70884259,1.42526536,-3.34509856,7.49859369e-01,4.25973916e-05,7.55568147,-2.59037361e-01,-1,-0.7975213999267827
1.53317740e+03,2.24993532e+02,-4.03984213e-06,4.70993369,1.42309033,-3.34509856,7.49859346e-01,4.26676582e-05,7.55779521,-2.52690169e-01,-1,-0.7938348752915148
1.55367223e+03,2.24993450e+02,-4.03036679e-06,4.71102480,1.42091530,-3.34509857,7.49859323e-01,4.27379247e-05,7.55990894,-2.46342977e-01,-1,-0.7901483524550045
1.57419579e+03,2.24993367e+02,-4.02087137e-06,4.71211637,1.41873928,-3.34509857,7.49859301e-01,4.28086883e-05,7.56202362,-2.39992944e-01,-1,-0.78645666178831
1.59625122e+03,2.24993280e+02,-4.01030545e-06,4.71323282,1.41651079,-3.34509857,7.49859269e-01,4.29059479e-05,7.56418868,-2.33491423e-01,-1,-0.7824894248625068
1.61830665e+03,2.24993193e+02,-3.99973953e-06,4.71434928,1.41428231,-3.34509857,7.49859237e-01,4.30032075e-05,7.56635374,-2.26989901e-01,-1,-0.7785221879367039
1.64036208e+03,2.24993105e+02,-3.98917360e-06,4.71546574,1.41205382,-3.34509857,7.49859206e-01,4.31004671e-05,7.56851879,-2.20488380e-01,-1,-0.7745549510109009
1.66241751e+03,2.24993018e+02,-3.97860768e-06,4.71658220,1.40982533,-3.34509857,7.49859174e-01,4.31977267e-05,7.57068385,-2.13986859e-01,-1,-0.7705877140850979
1.68447294e+03,2.24992931e+02,-3.96804176e-06,4.71769866,1.40759684,-3.34509857,7.49859143e-01,4.32949863e-05,7.57284891,-2.07485338e-01,-1,-0.7666204771592947
1.70673319e+03,2.24992843e+02,-3.95672386e-06,4.71881743,1.40536268,-3.34509857,7.49859110e-01,4.33956096e-05,7.57502081,-2.00962875e-01,-1,-0.7626163980831848
1.73038372e+03,2.24992751e+02,-3.94030149e-06,4.71995185,1.40308997,-3.34509857,7.49859070e-01,4.35190663e-05,7.57723922,-1.94298266e-01,-1,-0.7583622413548503
1.75403424e+03,2.24992659e+02,-3.92387912e-06,4.72108627,1.40081726,-3.34509857,7.49859030e-01,4.36425230e-05,7.57945762,-1.87633656e-01,-1,-0.7541080864252732
1.77768477e+03,2.24992568e+02,-3.90745675e-06,4.72222069,1.39854455,-3.34509858,7.49858990e-01,4.37659797e-05,7.58167603,-1.80969046e-01,-1,-0.7498539296969386
1.80133530e+03,2.24992476e+02,-3.89103439e-06,4.72335511,1.39627184,-3.34509858,7.49858950e-01,4.38894364e-05,7.58389443,-1.74304436e-01,-1,-0.745599772968604
1.82554846e+03,2.24992383e+02,-3.87460034e-06,4.72450111,1.39397678,-3.34509858,7.49858906e-01,4.40234351e-05,7.58613442,-1.67575160e-01,-1,-0.7412444127492668
1.85061018e+03,2.24992287e+02,-3.85814866e-06,4.72566457,1.39164800,-3.34509858,7.49858857e-01,4.41733335e-05,7.58840696,-1.60748355e-01,-1,-0.7367364171668576
1.87567190e+03,2.24992191e+02,-3.84169699e-06,4.72682803,1.38931923,-3.34509858,7.49858808e-01,4.43232319e-05,7.59067951,-1.53921549e-01,-1,-0.7322284215844483
1.90073363e+03,2.24992096e+02,-3.82524532e-06,4.72799149,1.38699045,-3.34509858,7.49858760e-01,4.44731303e-05,7.59295205,-1.47094743e-01,-1,-0.7277204242032815
1.92601760e+03,2.24992000e+02,-3.80914978e-06,4.72915946,1.38465327,-3.34509858,7.49858709e-01,4.46281056e-05,7.59523211,-1.40251391e-01,-1,-0.7231724512363118
1.95258544e+03,2.24991900e+02,-3.79511150e-06,4.73035345,1.38226751,-3.34509858,7.49858649e-01,4.48124085e-05,7.59755557,-1.33312461e-01,-1,-0.7183935411952549
1.97915329e+03,2.24991801e+02,-3.78107322e-06,4.73154743,1.37988175,-3.34509859,7.49858588e-01,4.49967114e-05,7.59987903,-1.26373531e-01,-1,-0.7136146293554405
2.00572113e+03,2.24991701e+02,-3.76703493e-06,4.73274142,1.37749600,-3.34509859,7.49858528e-01,4.51810142e-05,7.60220249,-1.19434601e-01,-1,-0.7088357193143836
2.03228897e+03,2.24991602e+02,-3.75299665e-06,4.73393541,1.37511024,-3.34509859,7.49858468e-01,4.53653171e-05,7.60452595,-1.12495671e-01,-1,-0.7040568092733267
2.05946563e+03,2.24991501e+02,-3.73863872e-06,4.73513853,1.37270619,-3.34509859,7.49858403e-01,4.55634186e-05,7.60686649,-1.05515937e-01,-1,-0.699168387280557
2.08784861e+03,2.24991397e+02,-3.72364743e-06,4.73635976,1.37026589,-3.34509859,7.49858329e-01,4.57888607e-05,7.60924088,-9.84553536e-02,-1,-0.6940629775778067
