star_age,star_mass,star_mdot,log_Teff,log_R,log_surf_z,surface_h1,surface_he3,log_center_T,log_center_Rho,phase,x
1.09191942e+02,1.49999843e+01,-1.21807388e-07,3.65807509,2.28899757,-3.84509856,7.50629135e-01,4.13624913e-05,5.70596513,-4.67125460,-1,-1.0
1.13605476e+02,1.49999837e+01,-1.20322206e-07,3.65822411,2.28726821,-3.84509857,7.50629136e-01,4.13624913e-05,5.70763478,-4.66502913,-1,-0.9999387222394193
1.18180796e+02,1.49999832e+01,-1.18833734e-07,3.65837646,2.28548855,-3.84509857,7.50629136e-01,4.13624913e-05,5.70935623,-4.65858840,-1,-0.9998751982326844
1.22926326e+02,1.49999826e+01,-1.17313325e-07,3.65853287,2.28366213,-3.84509858,7.50629136e-01,4.13624912e-05,5.71112600,-4.65195054,-1,-0.9998093110204936
1.27855184e+02,1.49999821e+01,-1.15755456e-07,3.65869409,2.28178985,-3.84509858,7.50629137e-01,4.13624912e-05,5.71294350,-4.64511982,-1,-0.9997408784717786
1.32978027e+02,1.49999815e+01,-1.14188898e-07,3.65886024,2.27987202,-3.84509859,7.50629137e-01,4.13624912e-05,5.71480899,-4.63809483,-1,-0.9996697526241366
1.38309866e+02,1.49999809e+01,-1.12617985e-07,3.65902946,2.27791725,-3.84509859,7.50629137e-01,4.13624911e-05,5.71671400,-4.63091356,-1,-0.999595725063978
1.43875397e+02,1.49999803e+01,-1.11036652e-07,3.65920284,2.27591067,-3.84509860,7.50629137e-01,4.13624911e-05,5.71867529,-4.62350188,-1,-0.9995184529106145
1.49659115e+02,1.49999796e+01,-1.09444030e-07,3.65938201,2.27385740,-3.84509860,7.50629138e-01,4.13624911e-05,5.72068750,-4.61587899,-1,-0.9994381514363604
1.55669922e+02,1.49999790e+01,-1.07829636e-07,3.65956162,2.27175714,-3.84509861,7.50629138e-01,4.13624911e-05,5.72275192,-4.60803840,-1,-0.9993546970453342
1.61918653e+02,1.49999783e+01,-1.06200578e-07,3.65974971,2.26959861,-3.84509861,7.50629138e-01,4.13624910e-05,5.72488212,-4.59992615,-1,-0.9992679393037712
1.68415184e+02,1.49999776e+01,-1.04556152e-07,3.65994307,2.26738825,-3.84509862,7.50629139e-01,4.13624910e-05,5.72707186,-4.59156918,-1,-0.9991777410927177
1.75169551e+02,1.49999769e+01,-1.02893982e-07,3.66013572,2.26514106,-3.84509862,7.50629139e-01,4.13624910e-05,5.72930365,-4.58302830,-1,-0.999083963071771
1.82192468e+02,1.49999762e+01,-1.01229245e-07,3.66033795,2.26285104,-3.84509863,7.50629140e-01,4.13624909e-05,5.73158554,-4.57427187,-1,-0.9989864564871375
1.89493637e+02,1.49999755e+01,-9.95794100e-08,3.66054356,2.26050239,-3.84509864,7.50629140e-01,4.13624908e-05,5.73393877,-4.56522191,-1,-0.9988850866356892
1.97083487e+02,1.49999748e+01,-9.79120693e-08,3.66074914,2.25811704,-3.84509866,7.50629141e-01,4.13624908e-05,5.73633671,-4.55597327,-1,-0.998779708720589
2.04970906e+02,1.49999740e+01,-9.62221996e-08,3.66096211,2.25568887,-3.84509867,7.50629142e-01,4.13624907e-05,5.73878831,-4.54649008,-1,-0.9986701993403322
2.13200767e+02,1.49999732e+01,-9.45495539e-08,3.66118414,2.25320907,-3.84509868,7.50629142e-01,4.13624906e-05,5.74130645,-4.53672309,-1,-0.9985559354755991
2.21752869e+02,1.49999724e+01,-9.28941254e-08,3.66140509,2.25067225,-3.84509869,7.50629143e-01,4.13624906e-05,5.74390030,-4.52663291,-1,-0.9984371975982386
2.30638902e+02,1.49999716e+01,-9.12127716e-08,3.66163375,2.24809245,-3.84509870,7.50629143e-01,4.13624905e-05,5.74655320,-4.51628672,-1,-0.9983138234036165
2.39870231e+02,1.49999708e+01,-8.95356208e-08,3.66186714,2.24547053,-3.84509870,7.50629144e-01,4.13624905e-05,5.74926626,-4.50567675,-1,-0.9981856550994176
2.49457185e+02,1.49999699e+01,-8.78761475e-08,3.66210511,2.24280855,-3.84509871,7.50629144e-01,4.13624904e-05,5.75203882,-4.49480743,-1,-0.9980525492772101
2.59445335e+02,1.49999691e+01,-8.62114211e-08,3.66234463,2.24010634,-3.84509872,7.50629145e-01,4.13624904e-05,5.75487490,-4.48365952,-1,-0.997913873226602
2.69843870e+02,1.49999682e+01,-8.45725229e-08,3.66259273,2.23737865,-3.84509873,7.50629145e-01,4.13624903e-05,5.75775657,-4.47230210,-1,-0.9977694993669872
2.80636967e+02,1.49999673e+01,-8.29509475e-08,3.66284168,2.23461606,-3.84509874,7.50629146e-01,4.13624903e-05,5.76069920,-4.46067687,-1,-0.9976196473858104
2.91835804e+02,1.49999664e+01,-8.13222645e-08,3.66309734,2.23180706,-3.84509874,7.50629146e-01,4.13624903e-05,5.76372252,-4.44871025,-1,-0.997464162087075
3.03529320e+02,1.49999655e+01,-7.96998767e-08,3.66335749,2.22895996,-3.84509878,7.50629148e-01,4.13624900e-05,5.76682073,-4.43641606,-1,-0.9973018086365758
3.15665189e+02,1.49999645e+01,-7.81008749e-08,3.66362115,2.22608769,-3.84509881,7.50629150e-01,4.13624899e-05,5.76997624,-4.42386735,-1,-0.9971333135315145
3.28257280e+02,1.49999635e+01,-7.65303355e-08,3.66388961,2.22317913,-3.84509884,7.50629151e-01,4.13624897e-05,5.77321030,-4.41098725,-1,-0.9969584842138952
3.41402195e+02,1.49999625e+01,-7.49741695e-08,3.66416263,2.22024175,-3.84509886,7.50629153e-01,4.13624896e-05,5.77652017,-4.39776837,-1,-0.9967759794559792
3.55028028e+02,1.49999615e+01,-7.34346966e-08,3.66443667,2.21729366,-3.84509888,7.50629154e-01,4.13624895e-05,5.77987847,-4.38432837,-1,-0.9965867976048168
3.69214262e+02,1.49999605e+01,-7.19295933e-08,3.66471544,2.21432923,-3.84509890,7.50629155e-01,4.13624894e-05,5.78330270,-4.37058976,-1,-0.9963898351138527
3.83964320e+02,1.49999595e+01,-7.04347737e-08,3.66500072,2.21134041,-3.84509891,7.50629156e-01,4.13624893e-05,5.78680770,-4.35649542,-1,-0.9961850444579574
3.99278949e+02,1.49999584e+01,-6.89696155e-08,3.66528780,2.20834663,-3.84509892,7.50629156e-01,4.13624892e-05,5.79037649,-4.34213411,-1,-0.9959724152657397
4.15236951e+02,1.49999573e+01,-6.75428712e-08,3.66558032,2.20532629,-3.84509894,7.50629157e-01,4.13624891e-05,5.79404635,-4.32732288,-1,-0.9957508534456871
4.31781228e+02,1.49999562e+01,-6.61209705e-08,3.66587610,2.20230111,-3.84509895,7.50629158e-01,4.13624891e-05,5.79778830,-4.31220930,-1,-0.9955211517497248
4.49038470e+02,1.49999551e+01,-6.47395966e-08,3.66617392,2.19928505,-3.84509896,7.50629158e-01,4.13624890e-05,5.80160415,-4.29679748,-1,-0.9952815512065862
4.66929999e+02,1.49999540e+01,-6.33990370e-08,3.66647741,2.19626180,-3.84509897,7.50629159e-01,4.13624890e-05,5.80551122,-4.28099800,-1,-0.9950331441861608
4.85578434e+02,1.49999528e+01,-6.20829832e-08,3.66678195,2.19325601,-3.84509897,7.50629159e-01,4.13624889e-05,5.80949702,-4.26487775,-1,-0.9947742282391814
5.04933303e+02,1.49999516e+01,-6.08120247e-08,3.66709220,2.19026085,-3.84509898,7.50629160e-01,4.13624889e-05,5.81357245,-4.24839914,-1,-0.9945055041218065
5.25079109e+02,1.49999504e+01,-5.95749165e-08,3.66740412,2.18729225,-3.84509899,7.50629160e-01,4.13624888e-05,5.81773220,-4.23157822,-1,-0.9942257985895109
5.46021922e+02,1.49999492e+01,-5.83750166e-08,3.66771644,2.18436136,-3.84509900,7.50629161e-01,4.13624887e-05,5.82196695,-4.21445392,-1,-0.9939350273660645
5.67779016e+02,1.49999480e+01,-5.72319465e-08,3.66803540,2.18145338,-3.84509901,7.50629161e-01,4.13624887e-05,5.82631584,-4.19689758,-1,-0.9936329506182553
5.90439465e+02,1.49999467e+01,-5.61151623e-08,3.66835698,2.17858302,-3.84509903,7.50629162e-01,4.13624886e-05,5.83078494,-4.17889091,-1,-0.9933183316375304
6.13934340e+02,1.49999454e+01,-5.50387561e-08,3.66867947,2.17576253,-3.84509904,7.50629163e-01,4.13624885e-05,5.83534859,-4.16051922,-1,-0.9929921274381008
6.38457542e+02,1.49999441e+01,-5.40187254e-08,3.66900576,2.17301988,-3.84509905,7.50629163e-01,4.13624885e-05,5.84001415,-4.14175487,-1,-0.9926516458873005
6.63891815e+02,1.49999427e+01,-5.30518864e-08,3.66933427,2.17034515,-3.84509906,7.50629164e-01,4.13624884e-05,5.84478476,-4.12258996,-1,-0.9922985149741955
6.90369548e+02,1.49999413e+01,-5.21334669e-08,3.66966497,2.16775572,-3.84509907,7.50629165e-01,4.13624883e-05,5.84968193,-4.10296229,-1,-0.9919308966022751
7.17902898e+02,1.49999399e+01,-5.12690489e-08,3.66999700,2.16528055,-3.84509908,7.50629165e-01,4.13624883e-05,5.85468260,-4.08298575,-1,-0.99154862198305
7.46493747e+02,1.49999385e+01,-5.04726810e-08,3.67033123,2.16290618,-3.84509916,7.50629170e-01,4.13624878e-05,5.85982359,-4.06250282,-1,-0.9911516649867239
7.76300868e+02,1.49999370e+01,-4.97378116e-08,3.67066618,2.16068861,-3.84509923,7.50629174e-01,4.13624874e-05,5.86508966,-4.04162486,-1,-0.9907378211998085
8.07205923e+02,1.49999354e+01,-4.90680637e-08,3.67100123,2.15861412,-3.84509927,7.50629176e-01,4.13624872e-05,5.87048730,-4.02031374,-1,-0.9903087336339201
8.39448131e+02,1.49999339e+01,-4.84861761e-08,3.67134030,2.15672196,-3.84509927,7.50629177e-01,4.13624871e-05,5.87606952,-3.99840328,-1,-0.9898610809586673
8.72875348e+02,1.49999323e+01,-4.79666439e-08,3.67168310,2.15501972,-3.84509927,7.50629176e-01,4.13624872e-05,5.88180179,-3.97603405,-1,-0.98939697555012
9.07719923e+02,1.49999306e+01,-4.75426239e-08,3.67201767,2.15357050,-3.84509927,7.50629176e-01,4.13624872e-05,5.88771370,-3.95311647,-1,-0.9889131914613628
9.43869230e+02,1.49999289e+01,-4.72150566e-08,3.67236144,2.15237961,-3.84509926,7.50629176e-01,4.13624872e-05,5.89379028,-3.92970651,-1,-0.9884112923982749
9.81524552e+02,1.49999271e+01,-4.70029092e-08,3.67269609,2.15152524,-3.84509926,7.50629176e-01,4.13624872e-05,5.90004912,-3.90577154,-1,-0.9878884837360763
1.02057800e+03,1.49999253e+01,-4.69079612e-08,3.67303666,2.15100203,-3.84509925,7.50629176e-01,4.13624872e-05,5.90652136,-3.88121494,-1,-0.9873462634118649
1.06122453e+03,1.49999234e+01,-4.69660012e-08,3.67337720,2.15091462,-3.84509925,7.50629175e-01,4.13624872e-05,5.91322313,-3.85602789,-1,-0.9867819246452939
1.10338061e+03,1.49999214e+01,-4.71956507e-08,3.67371630,2.15129735,-3.84509924,7.50629175e-01,4.13624873e-05,5.92015004,-3.83024123,-1,-0.9861966271994684
1.14711281e+03,1.49999193e+01,-4.76349116e-08,3.67405619,2.15223431,-3.84509924,7.50629175e-01,4.13624873e-05,5.92732502,-3.80381627,-1,-0.9855894468126695
1.19249989e+03,1.49999171e+01,-4.83457130e-08,3.67439456,2.15384784,-3.84509922,7.50629174e-01,4.13624874e-05,5.93477507,-3.77671289,-1,-0.9849592899765149
1.23943927e+03,1.49999148e+01,-4.93763896e-08,3.67473307,2.15621184,-3.84509921,7.50629173e-01,4.13624875e-05,5.94250081,-3.74895659,-1,-0.9843075809176406
1.28790212e+03,1.49999124e+01,-5.08098409e-08,3.67507349,2.15945308,-3.84509919,7.50629172e-01,4.13624875e-05,5.95050870,-3.72054817,-1,-0.983634719913429
1.33780504e+03,1.49999098e+01,-5.27430041e-08,3.67541848,2.16372215,-3.84509917,7.50629171e-01,4.13624877e-05,5.95882215,-3.69148031,-1,-0.9829418648942898
1.38895595e+03,1.49999070e+01,-5.52825308e-08,3.67577532,2.16913615,-3.84509914,7.50629170e-01,4.13624878e-05,5.96743318,-3.66182739,-1,-0.9822316827100201
1.44113242e+03,1.49999040e+01,-5.85910705e-08,3.67615199,2.17583826,-3.84509911,7.50629168e-01,4.13624880e-05,5.97633372,-3.63169144,-1,-0.9815072615915672
1.49400315e+03,1.49999008e+01,-6.28006641e-08,3.67656585,2.18384400,-3.84509907,7.50629165e-01,4.13624882e-05,5.98548339,-3.60122603,-1,-0.980773201327237
1.54725655e+03,1.49998973e+01,-6.80793333e-08,3.67703953,2.19310516,-3.84509903,7.50629163e-01,4.13624885e-05,5.99489535,-3.57041982,-1,-0.9800338280505584
1.60071029e+03,1.49998934e+01,-7.45479902e-08,3.67760100,2.20342846,-3.84509898,7.50629160e-01,4.13624888e-05,6.00455275,-3.53939253,-1,-0.9792916732417665
1.65443457e+03,1.49998892e+01,-8.22747698e-08,3.67830869,2.21443231,-3.84509893,7.50629157e-01,4.13624891e-05,6.01446712,-3.50814601,-1,-0.9785457622400127
1.70860198e+03,1.49998844e+01,-9.12280739e-08,3.67928671,2.22555636,-3.84509888,7.50629154e-01,4.13624894e-05,6.02471867,-3.47637053,-1,-0.9777936987957839
1.76383273e+03,1.49998791e+01,-1.01262763e-07,3.68080496,2.23571278,-3.84509875,7.50629146e-01,4.13624902e-05,6.03542283,-3.44378326,-1,-0.9770268718776733
1.82287390e+03,1.49998727e+01,-1.10781802e-07,3.68308942,2.24259410,-3.84509875,7.50629147e-01,4.13624902e-05,6.04705668,-3.40891802,-1,-0.976207140868539
1.88590638e+03,1.49998655e+01,-1.18508248e-07,3.68609224,2.24585305,-3.84509875,7.50629146e-01,4.13624902e-05,6.05958081,-3.37180591,-1,-0.9753319942811892
1.95113344e+03,1.49998575e+01,-1.24905107e-07,3.68988052,2.24619868,-3.84509874,7.50629146e-01,4.13624902e-05,6.07253333,-3.33385589,-1,-0.9744263780185598
2.01693281e+03,1.49998491e+01,-1.29918706e-07,3.69472707,2.24337209,-3.84509873,7.50629145e-01,4.13624903e-05,6.08557122,-3.29599785,-1,-0.9735128157708858
2.08164326e+03,1.49998405e+01,-1.33471428e-07,3.70075447,2.23731763,-3.84509872,7.50629145e-01,4.13624903e-05,6.09841754,-3.25890611,-1,-0.9726143721512889
2.14587340e+03,1.49998319e+01,-1.35937531e-07,3.70750434,2.22915443,-3.84509873,7.50629146e-01,4.13624902e-05,6.11108563,-3.22255540,-1,-0.971722597183431
2.21050156e+03,1.49998230e+01,-1.37622851e-07,3.71464753,2.21969800,-3.84509875,7.50629147e-01,4.13624901e-05,6.12372295,-3.18648658,-1,-0.9708252960829397
2.27580804e+03,1.49998140e+01,-1.38718571e-07,3.72206800,2.20929098,-3.84509871,7.50629145e-01,4.13624904e-05,6.13639142,-3.15049253,-1,-0.9699185771484502
2.34200373e+03,1.49998048e+01,-1.39309177e-07,3.72969760,2.19812283,-3.84509871,7.50629145e-01,4.13624904e-05,6.14911217,-3.11449656,-1,-0.9689995123710408
2.40924268e+03,1.49997954e+01,-1.39459523e-07,3.73749231,2.18631893,-3.84509873,7.50629146e-01,4.13624902e-05,6.16189144,-3.07846462,-1,-0.9680659629116274
2.47764745e+03,1.49997859e+01,-1.39215245e-07,3.74542155,2.17396690,-3.84509869,7.50629144e-01,4.13624904e-05,6.17473261,-3.04237585,-1,-0.9671162271401021
2.54733421e+03,1.49997762e+01,-1.38616880e-07,3.75346192,2.16113434,-3.84509869,7.50629145e-01,4.13624903e-05,6.18763713,-3.00621599,-1,-0.9661486921454857
2.61840658e+03,1.49997664e+01,-1.37702343e-07,3.76159356,2.14788027,-3.84509870,7.50629147e-01,4.13624901e-05,6.20060413,-2.96998205,-1,-0.9651619192617222
2.69097005e+03,1.49997564e+01,-1.36501559e-07,3.76980066,2.13425293,-3.84509869,7.50629149e-01,4.13624899e-05,6.21363441,-2.93367800,-1,-0.9641544438595683
2.76512613e+03,1.49997464e+01,-1.35050692e-07,3.77807065,2.12029176,-3.84509875,7.50629155e-01,4.13624893e-05,6.22672513,-2.89731951,-1,-0.9631248565683299
2.84097363e+03,1.49997362e+01,-1.33375617e-07,3.78639219,2.10603272,-3.84509892,7.50629167e-01,4.13624880e-05,6.23987604,-2.86093322,-1,-0.9620717855042688
2.91863333e+03,1.49997259e+01,-1.31500729e-07,3.79475389,2.09150944,-3.84509926,7.50629191e-01,4.13624856e-05,6.25309077,-2.82454589,-1,-0.9609935537508996
2.99822745e+03,1.49997155e+01,-1.29449449e-07,3.80314623,2.07674754,-3.84509925,7.50629193e-01,4.13624854e-05,6.26637356,-2.78820383,-1,-0.9598884643986939
3.07988825e+03,1.49997051e+01,-1.27240308e-07,3.81156056,2.06176633,-3.84509957,7.50629214e-01,4.13624832e-05,6.27972818,-2.75197432,-1,-0.9587546811421847
3.16379341e+03,1.49996945e+01,-1.24892065e-07,3.81998644,2.04658272,-3.84509943,7.50629202e-01,4.13624845e-05,6.29315673,-2.71594486,-1,-0.957589737062005
3.25012634e+03,1.49996838e+01,-1.22394670e-07,3.82841354,2.03120633,-3.84509927,7.50629174e-01,4.13624873e-05,6.30665750,-2.68021271,-1,-0.956391085683138
3.33912108e+03,1.49996731e+01,-1.19760644e-07,3.83682950,2.01564258,-3.84509871,7.50629168e-01,4.13624879e-05,6.32021574,-2.64487624,-1,-0.9551554775807266
3.43105512e+03,1.49996622e+01,-1.16975250e-07,3.84521838,1.99989711,-3.84509868,7.50629172e-01,4.13624875e-05,6.33379151,-2.61000408,-1,-0.9538790600676084
3.52622848e+03,1.49996512e+01,-1.14031533e-07,3.85356291,1.98397344,-3.84509842,7.50629175e-01,4.13624871e-05,6.34730001,-2.57559260,-1,-0.9525576676488011
3.62492076e+03,1.49996402e+01,-1.10922627e-07,3.86184553,1.96787861,-3.84509829,7.50629180e-01,4.13624867e-05,6.36059900,-2.54150250,-1,-0.9511874183417808
3.72735876e+03,1.49996290e+01,-1.07661173e-07,3.87005071,1.95162852,-3.84509843,7.50629185e-01,4.13624861e-05,6.37351741,-2.50742824,-1,-0.949765163242268
3.83367012e+03,1.49996178e+01,-1.04270082e-07,3.87816884,1.93525250,-3.84509853,7.50629192e-01,4.13624854e-05,6.38593759,-2.47297154,-1,-0.9482891301891418
3.94391834e+03,1.49996065e+01,-1.00797706e-07,3.88619773,1.91879266,-3.84509862,7.50629201e-01,4.13624845e-05,6.39788995,-2.43781027,-1,-0.9467584375447402
4.05811777e+03,1.49995952e+01,-9.73041897e-08,3.89414345,1.90229866,-3.84509867,7.50629208e-01,4.13624837e-05,6.40956817,-2.40184671,-1,-0.9451728860728357
4.17603518e+03,1.49995840e+01,-9.38724545e-08,3.90203565,1.88583677,-3.84509871,7.50629200e-01,4.13624845e-05,6.42123797,-2.36507004,-1,-0.9435357139521984
4.29815071e+03,1.49995728e+01,-9.05284469e-08,3.90985153,1.86942735,-3.84509872,7.50629198e-01,4.13624847e-05,6.43300054,-2.32781822,-1,-0.9418402548913791
4.42438804e+03,1.49995616e+01,-8.73078947e-08,3.91761006,1.85314189,-3.84509877,7.50629201e-01,4.13624844e-05,6.44493436,-2.29007233,-1,-0.940087568521659
4.55478051e+03,1.49995504e+01,-8.42825388e-08,3.92532471,1.83705723,-3.84509878,7.50629206e-01,4.13624839e-05,6.45705246,-2.25185423,-1,-0.9382771919485555
4.68926498e+03,1.49995393e+01,-8.15018281e-08,3.93301103,1.82124387,-3.84509883,7.50629208e-01,4.13624836e-05,6.46934480,-2.21320521,-1,-0.9364100018114699
4.82774309e+03,1.49995282e+01,-7.90087018e-08,3.94068912,1.80576394,-3.84509888,7.50629211e-01,4.13624833e-05,6.48179550,-2.17419361,-1,-0.9344873637463145
4.96996598e+03,1.49995172e+01,-7.68292166e-08,3.94838128,1.79065685,-3.84509888,7.50629212e-01,4.13624831e-05,6.49438412,-2.13489638,-1,-0.9325127329396807
5.11565965e+03,1.49995062e+01,-7.49737568e-08,3.95610924,1.77593760,-3.84509901,7.50629220e-01,4.13624823e-05,6.50709174,-2.09539753,-1,-0.93048991362337
5.26454955e+03,1.49994951e+01,-7.34322305e-08,3.96389079,1.76158891,-3.84509896,7.50629217e-01,4.13624827e-05,6.51990048,-2.05577110,-1,-0.9284227176654154
5.41637781e+03,1.49994841e+01,-7.21697836e-08,3.97173772,1.74755608,-3.84509920,7.50629206e-01,4.13624837e-05,6.53279757,-2.01607519,-1,-0.926314725347768
5.57100847e+03,1.49994730e+01,-7.11370522e-08,3.97965635,1.73376050,-3.84509946,7.50629212e-01,4.13624831e-05,6.54577520,-1.97634427,-1,-0.9241678243469087
5.72842427e+03,1.49994619e+01,-7.02752573e-08,3.98764824,1.72010903,-3.84509981,7.50629237e-01,4.13624805e-05,6.55882900,-1.93659533,-1,-0.9219822543016727
5.88871884e+03,1.49994507e+01,-6.95240875e-08,3.99571158,1.70650746,-3.84509935,7.50629271e-01,4.13624769e-05,6.57196307,-1.89681272,-1,-0.9197567152477404
6.05205394e+03,1.49994396e+01,-6.53910153e-08,4.00384152,1.69287015,-3.84509926,7.50629250e-01,4.13624790e-05,6.58518078,-1.85697678,-1,-0.9174889612999433
6.21864823e+03,1.49994301e+01,-5.18962215e-08,4.01203179,1.67912762,-3.84509953,7.50629294e-01,4.13624744e-05,6.59848784,-1.81706138,-1,-0.9151759565702315
6.38875322e+03,1.49994226e+01,-3.83320255e-08,4.02027501,1.66522756,-3.84509947,7.50629288e-01,4.13624750e-05,6.61188724,-1.77704218,-1,-0.9128142090792607
6.56263175e+03,1.49994174e+01,-2.47246313e-08,4.02856329,1.65113502,-3.84509973,7.50629306e-01,4.13624730e-05,6.62537904,-1.73690117,-1,-0.9104000695413129
6.74057231e+03,1.49994144e+01,-1.11240717e-08,4.03688862,1.63682965,-3.84509988,7.50629400e-01,4.13624632e-05,6.63896180,-1.69662717,-1,-0.9079295325445913
6.92283720e+03,1.49994137e+01,-1.25098807e-09,4.04524258,1.62230583,-3.84510050,7.50629583e-01,4.13624442e-05,6.65263395,-1.65620746,-1,-0.9053989563007693
7.10968547e+03,1.49994135e+01,-1.30403964e-09,4.05361715,1.60756788,-3.84510103,7.50629863e-01,4.13624151e-05,6.66639246,-1.61563959,-1,-0.9028047441447076
7.30137157e+03,1.49994132e+01,-1.35693977e-09,4.06200530,1.59262774,-3.84510191,7.50630178e-01,4.13623822e-05,6.68023310,-1.57491907,-1,-0.9001433632779323
7.49819545e+03,1.49994129e+01,-1.40951431e-09,4.07040082,1.57750039,-3.84510294,7.50630519e-01,4.13623467e-05,6.69414936,-1.53405549,-1,-0.8974106491773457
7.70033409e+03,1.49994126e+01,-1.46167737e-09,4.07879819,1.56220903,-3.84510387,7.50630855e-01,4.13623117e-05,6.70813224,-1.49305758,-1,-0.8946041446424213
7.90811940e+03,1.49994123e+01,-1.51341361e-09,4.08719238,1.54677474,-3.84510520,7.50631153e-01,4.13622806e-05,6.72217615,-1.45192682,-1,-0.8917192414155782
8.12171814e+03,1.49994120e+01,-1.56479171e-09,4.09557933,1.53122380,-3.84510539,7.50631308e-01,4.13622642e-05,6.73627365,-1.41067398,-1,-0.8887536241913595
