star_age,star_mass,star_mdot,log_Teff,log_R,log_surf_z,surface_h1,surface_he3,log_center_T,log_center_Rho,phase,x
9.67070139e+01,7.99990050e+01,-7.14656639e-07,4.16982254,2.18470957,-3.84509851,7.50629136e-01,4.13624912e-05,6.65739572,-2.57062788,-1,-1.0
9.93995607e+01,7.99990031e+01,-7.12394115e-07,4.17095634,2.18189102,-3.84509851,7.50629136e-01,4.13624912e-05,6.65877021,-2.56661896,-1,-0.9997650197790767
1.02092107e+02,7.99990012e+01,-7.10131590e-07,4.17209015,2.17907248,-3.84509851,7.50629136e-01,4.13624912e-05,6.66014470,-2.56261004,-1,-0.9995300396017887
1.04784654e+02,7.99989993e+01,-7.07869066e-07,4.17322396,2.17625393,-3.84509851,7.50629136e-01,4.13624912e-05,6.66151919,-2.55860111,-1,-0.9992950593634112
1.07477201e+02,7.99989974e+01,-7.05606541e-07,4.17435776,2.17343538,-3.84509852,7.50629136e-01,4.13624912e-05,6.66289368,-2.55459219,-1,-0.9990600791250338
1.10297430e+02,7.99989955e+01,-7.03489806e-07,4.17551395,2.17058766,-3.84509852,7.50629136e-01,4.13624912e-05,6.66432320,-2.55042234,-1,-0.9988139559997182
1.13345332e+02,7.99989934e+01,-7.01633031e-07,4.17671004,2.16768794,-3.84509852,7.50629137e-01,4.13624912e-05,6.66585086,-2.54596553,-1,-0.9985479637111858
1.16393234e+02,7.99989912e+01,-6.99776255e-07,4.17790614,2.16478821,-3.84509852,7.50629137e-01,4.13624912e-05,6.66737852,-2.54150873,-1,-0.9982819714226534
1.19441135e+02,7.99989891e+01,-6.97919479e-07,4.17910223,2.16188848,-3.84509852,7.50629137e-01,4.13624911e-05,6.66890617,-2.53705192,-1,-0.9980159792213916
1.22489037e+02,7.99989870e+01,-6.96062704e-07,4.18029833,2.15898875,-3.84509853,7.50629137e-01,4.13624911e-05,6.67043383,-2.53259511,-1,-0.9977499869328592
1.25699591e+02,7.99989848e+01,-6.94187505e-07,4.18152444,2.15604084,-3.84509853,7.50629137e-01,4.13624911e-05,6.67203115,-2.52793487,-1,-0.9974697999039072
1.29117367e+02,7.99989824e+01,-6.92288836e-07,4.18278878,2.15303154,-3.84509853,7.50629138e-01,4.13624911e-05,6.67371723,-2.52301545,-1,-0.9971715284831295
1.32535143e+02,7.99989801e+01,-6.90390167e-07,4.18405313,2.15002224,-3.84509853,7.50629138e-01,4.13624911e-05,6.67540330,-2.51809602,-1,-0.9968732570623519
1.35952919e+02,7.99989777e+01,-6.88491497e-07,4.18531748,2.14701294,-3.84509853,7.50629138e-01,4.13624911e-05,6.67708938,-2.51317660,-1,-0.9965749856415742
1.39532361e+02,7.99989753e+01,-6.86842397e-07,4.18661119,2.14395775,-3.84509853,7.50629138e-01,4.13624910e-05,6.67884208,-2.50806192,-1,-0.9962626055292054
1.43296870e+02,7.99989727e+01,-6.85478991e-07,4.18793852,2.14085002,-3.84509853,7.50629138e-01,4.13624910e-05,6.68067105,-2.50272371,-1,-0.9959340745055337
1.47061378e+02,7.99989701e+01,-6.84115585e-07,4.18926584,2.13774229,-3.84509853,7.50629138e-01,4.13624910e-05,6.68250002,-2.49738551,-1,-0.9956055435691327
1.50825887e+02,7.99989676e+01,-6.82752179e-07,4.19059317,2.13463456,-3.84509853,7.50629138e-01,4.13624910e-05,6.68432899,-2.49204730,-1,-0.9952770125454611
1.54936164e+02,7.99989648e+01,-6.81873103e-07,4.19198016,2.13143864,-3.84509854,7.50629139e-01,4.13624909e-05,6.68629227,-2.48631626,-1,-0.994918306135041
1.59076490e+02,7.99989620e+01,-6.81036118e-07,4.19337235,2.12823506,-3.84509854,7.50629139e-01,4.13624909e-05,6.68826722,-2.48055109,-1,-0.9945569773298464
1.63216816e+02,7.99989591e+01,-6.80199132e-07,4.19476453,2.12503148,-3.84509854,7.50629140e-01,4.13624908e-05,6.69024216,-2.47478591,-1,-0.9941956485246518
1.67379990e+02,7.99989563e+01,-6.79378061e-07,4.19616050,2.12182213,-3.84509855,7.50629140e-01,4.13624908e-05,6.69222565,-2.46899571,-1,-0.9938323257603967
1.71969543e+02,7.99989532e+01,-6.78853975e-07,4.19762712,2.11850495,-3.84509855,7.50629141e-01,4.13624907e-05,6.69436854,-2.46273842,-1,-0.9934317926376747
1.76559096e+02,7.99989501e+01,-6.78329889e-07,4.19909374,2.11518778,-3.84509856,7.50629141e-01,4.13624906e-05,6.69651143,-2.45648114,-1,-0.9930312595149525
1.81148649e+02,7.99989470e+01,-6.77805803e-07,4.20056035,2.11187060,-3.84509856,7.50629142e-01,4.13624906e-05,6.69865432,-2.45022386,-1,-0.9926307263922305
1.85738202e+02,7.99989439e+01,-6.77281716e-07,4.20202697,2.10855342,-3.84509857,7.50629143e-01,4.13624905e-05,6.70079721,-2.44396658,-1,-0.9922301932695085
1.90726836e+02,7.99989405e+01,-6.76997433e-07,4.20356207,2.10512009,-3.84509857,7.50629143e-01,4.13624905e-05,6.70309010,-2.43726992,-1,-0.9917948321016262
1.95779199e+02,7.99989371e+01,-6.76751445e-07,4.20510810,2.10166821,-3.84509857,7.50629143e-01,4.13624905e-05,6.70540695,-2.43050309,-1,-0.9913539092645841
2.00831561e+02,7.99989337e+01,-6.76505456e-07,4.20665413,2.09821633,-3.84509857,7.50629143e-01,4.13624905e-05,6.70772380,-2.42373626,-1,-0.9909129865148125
2.06085525e+02,7.99989301e+01,-6.76428651e-07,4.20823311,2.09471047,-3.84509857,7.50629143e-01,4.13624905e-05,6.71011305,-2.41675732,-1,-0.9904544698340837
2.11564115e+02,7.99989264e+01,-6.76540352e-07,4.20984880,2.09114448,-3.84509857,7.50629143e-01,4.13624904e-05,6.71258297,-2.40954205,-1,-0.9899763499037083
2.17042705e+02,7.99989227e+01,-6.76652053e-07,4.21146448,2.08757849,-3.84509857,7.50629144e-01,4.13624904e-05,6.71505290,-2.40232678,-1,-0.989498229973333
2.22728628e+02,7.99989189e+01,-6.76872418e-07,4.21311126,2.08396496,-3.84509858,7.50629144e-01,4.13624903e-05,6.71759204,-2.39490859,-1,-0.9890020159640935
2.28665250e+02,7.99989148e+01,-6.77224174e-07,4.21479562,2.08029396,-3.84509858,7.50629145e-01,4.13624902e-05,6.72021487,-2.38724504,-1,-0.9884839232984068
2.34601872e+02,7.99989108e+01,-6.77575930e-07,4.21647999,2.07662296,-3.84509859,7.50629146e-01,4.13624901e-05,6.72283770,-2.37958150,-1,-0.9879658306327201
2.40597512e+02,7.99989067e+01,-6.77961332e-07,4.21817283,2.07293894,-3.84509860,7.50629147e-01,4.13624900e-05,6.72547949,-2.37186233,-1,-0.9874425874297508
2.47081090e+02,7.99989023e+01,-6.78624908e-07,4.21993569,2.06914726,-3.84509860,7.50629148e-01,4.13624899e-05,6.72827799,-2.36368329,-1,-0.9868767615763938
2.53564668e+02,7.99988979e+01,-6.79288485e-07,4.22169855,2.06535559,-3.84509861,7.50629149e-01,4.13624898e-05,6.73107648,-2.35550425,-1,-0.9863109357230369
2.60048246e+02,7.99988935e+01,-6.79952062e-07,4.22346142,2.06156391,-3.84509862,7.50629151e-01,4.13624896e-05,6.73387498,-2.34732521,-1,-0.9857451098696799
2.66772363e+02,7.99988889e+01,-6.80932194e-07,4.22526020,2.05771203,-3.84509862,7.50629151e-01,4.13624896e-05,6.73675123,-2.33891855,-1,-0.9851582920293459
2.73811731e+02,7.99988841e+01,-6.82327207e-07,4.22710606,2.05378122,-3.84509862,7.50629151e-01,4.13624896e-05,6.73972939,-2.33021358,-1,-0.9845439620396869
2.80851099e+02,7.99988793e+01,-6.83722220e-07,4.22895193,2.04985042,-3.84509862,7.50629151e-01,4.13624896e-05,6.74270755,-2.32150860,-1,-0.9839296320500278
2.88135984e+02,7.99988743e+01,-6.85235190e-07,4.23083327,2.04586281,-3.84509862,7.50629151e-01,4.13624895e-05,6.74576306,-2.31257690,-1,-0.9832938756402596
2.95675854e+02,7.99988691e+01,-6.86870668e-07,4.23275145,2.04181619,-3.84509862,7.50629151e-01,4.13624895e-05,6.74889890,-2.30340973,-1,-0.982635866532179
3.03215723e+02,7.99988639e+01,-6.88506145e-07,4.23466964,2.03776957,-3.84509862,7.50629152e-01,4.13624895e-05,6.75203473,-2.29424256,-1,-0.9819778575113691
3.11180293e+02,7.99988584e+01,-6.90389989e-07,4.23664583,2.03363228,-3.84509862,7.50629152e-01,4.13624894e-05,6.75529703,-2.28470408,-1,-0.9812827845721878
3.19203553e+02,7.99988528e+01,-6.92308155e-07,4.23863004,2.02948245,-3.84509862,7.50629153e-01,4.13624893e-05,6.75857681,-2.27511429,-1,-0.9805825897204864
3.27461173e+02,7.99988471e+01,-6.94209494e-07,4.24064366,2.02528981,-3.84509863,7.50629154e-01,4.13624892e-05,6.76192102,-2.26533588,-1,-0.9798619421269512
3.36011113e+02,7.99988411e+01,-6.96089844e-07,4.24269397,2.02104376,-3.84509864,7.50629156e-01,4.13624890e-05,6.76534561,-2.25532222,-1,-0.9791157835866127
3.44561053e+02,7.99988351e+01,-6.97970195e-07,4.24474427,2.01679771,-3.84509865,7.50629157e-01,4.13624889e-05,6.76877020,-2.24530855,-1,-0.9783696250462742
3.53553823e+02,7.99988288e+01,-7.00105806e-07,4.24684764,2.01247489,-3.84509865,7.50629160e-01,4.13624886e-05,6.77231168,-2.23495280,-1,-0.9775848204585461
3.62732305e+02,7.99988223e+01,-7.02348467e-07,4.24897327,2.00811988,-3.84509865,7.50629163e-01,4.13624883e-05,6.77590220,-2.22445357,-1,-0.9767838086699671
3.71910787e+02,7.99988159e+01,-7.04591128e-07,4.25109889,2.00376486,-3.84509865,7.50629166e-01,4.13624880e-05,6.77949271,-2.21395435,-1,-0.9759827968813881
3.81496895e+02,7.99988090e+01,-7.07738505e-07,4.25327725,1.99932627,-3.84509864,7.50629166e-01,4.13624880e-05,6.78319493,-2.20312774,-1,-0.9751462113202254
3.91311094e+02,7.99988020e+01,-7.11392122e-07,4.25548511,1.99484090,-3.84509863,7.50629164e-01,4.13624881e-05,6.78695965,-2.19211794,-1,-0.9742897201167279
4.01212415e+02,7.99987949e+01,-7.15067975e-07,4.25770364,1.99033932,-3.84509862,7.50629163e-01,4.13624883e-05,6.79074694,-2.18104211,-1,-0.9734256257225236
4.11598029e+02,7.99987874e+01,-7.18867442e-07,4.25998151,1.98574761,-3.84509862,7.50629162e-01,4.13624883e-05,6.79465967,-2.16959923,-1,-0.9725192667793311
4.21983642e+02,7.99987799e+01,-7.22666909e-07,4.26225937,1.98115589,-3.84509862,7.50629162e-01,4.13624883e-05,6.79857239,-2.15815635,-1,-0.9716129079234093
4.32877443e+02,7.99987720e+01,-7.26718192e-07,4.26459612,1.97647651,-3.84509861,7.50629162e-01,4.13624883e-05,6.80260799,-2.14635515,-1,-0.9706621991871025
4.43812318e+02,7.99987640e+01,-7.30789828e-07,4.26693762,1.97179004,-3.84509861,7.50629162e-01,4.13624883e-05,6.80665351,-2.13452499,-1,-0.9697079058974672
4.55246841e+02,7.99987555e+01,-7.34556295e-07,4.26933432,1.96702599,-3.84509861,7.50629162e-01,4.13624883e-05,6.81081379,-2.12235825,-1,-0.9687100080185176
4.66777615e+02,7.99987470e+01,-7.38263976e-07,4.27174165,1.96224698,-3.84509861,7.50629163e-01,4.13624882e-05,6.81499617,-2.11012667,-1,-0.9677037102553973
4.78637949e+02,7.99987381e+01,-7.42178153e-07,4.27418393,1.95741741,-3.84509861,7.50629163e-01,4.13624882e-05,6.81924939,-2.09768793,-1,-0.9666686515876911
4.90879291e+02,7.99987289e+01,-7.46331065e-07,4.27666661,1.95252939,-3.84509861,7.50629163e-01,4.13624882e-05,6.82358448,-2.08500970,-1,-0.9656003421166884
5.03120633e+02,7.99987197e+01,-7.50483976e-07,4.27914929,1.94764137,-3.84509861,7.50629163e-01,4.13624882e-05,6.82791957,-2.07233147,-1,-0.9645320326456859
5.15917610e+02,7.99987100e+01,-7.56422306e-07,4.28169595,1.94265054,-3.84509860,7.50629162e-01,4.13624883e-05,6.83237955,-2.05928963,-1,-0.9634152325653268
5.28871678e+02,7.99987001e+01,-7.62865415e-07,4.28426071,1.93763066,-3.84509859,7.50629162e-01,4.13624883e-05,6.83687483,-2.04614499,-1,-0.96228472305645
5.42204268e+02,7.99986898e+01,-7.69284934e-07,4.28686838,1.93254280,-3.84509859,7.50629162e-01,4.13624883e-05,6.84145277,-2.03275867,-1,-0.9611211796990309
5.55791042e+02,7.99986792e+01,-7.75688611e-07,4.28950486,1.92740931,-3.84509859,7.50629162e-01,4.13624883e-05,6.84608621,-2.01921005,-1,-0.9599354535470639
5.69767059e+02,7.99986682e+01,-7.82227233e-07,4.29218231,1.92221008,-3.84509859,7.50629162e-01,4.13624882e-05,6.85079611,-2.00543807,-1,-0.9587157579182681
5.83958359e+02,7.99986570e+01,-7.88840490e-07,4.29488241,1.91697448,-3.84509859,7.50629163e-01,4.13624882e-05,6.85554829,-1.99154255,-1,-0.9574772744092018
5.98679082e+02,7.99986452e+01,-7.94778759e-07,4.29763565,1.91165366,-3.84509859,7.50629164e-01,4.13624881e-05,6.86039852,-1.97736209,-1,-0.9561925878281957
6.13524049e+02,7.99986333e+01,-8.00558624e-07,4.30040135,1.90631283,-3.84509860,7.50629165e-01,4.13624880e-05,6.86527177,-1.96311476,-1,-0.9548970583966332
6.28920228e+02,7.99986208e+01,-8.06647268e-07,4.30321888,1.90088311,-3.84509860,7.50629166e-01,4.13624878e-05,6.87023675,-1.94859959,-1,-0.953553424353654
6.44545851e+02,7.99986080e+01,-8.12864443e-07,4.30605800,1.89541637,-3.84509860,7.50629167e-01,4.13624877e-05,6.87523991,-1.93397293,-1,-0.9521897665911948
6.60409379e+02,7.99985950e+01,-8.20034308e-07,4.30892257,1.88990304,-3.84509860,7.50629167e-01,4.13624876e-05,6.88028830,-1.91921430,-1,-0.9508053467125642
6.76808404e+02,7.99985813e+01,-8.29348559e-07,4.31184447,1.88428481,-3.84509860,7.50629167e-01,4.13624876e-05,6.88543850,-1.90415859,-1,-0.9493741936802652
6.93455255e+02,7.99985673e+01,-8.38526377e-07,4.31479035,1.87862163,-3.84509860,7.50629168e-01,4.13624876e-05,6.89062964,-1.88898337,-1,-0.9479214127200021
7.10539907e+02,7.99985527e+01,-8.47463175e-07,4.31777859,1.87287905,-3.84509859,7.50629168e-01,4.13624875e-05,6.89589313,-1.87359701,-1,-0.9464304245962829
7.28025526e+02,7.99985377e+01,-8.56376566e-07,4.32080467,1.86706353,-3.84509859,7.50629168e-01,4.13624875e-05,6.90122043,-1.85802335,-1,-0.9449044438350196
7.45758685e+02,7.99985223e+01,-8.65275506e-07,4.32385410,1.86120299,-3.84509859,7.50629169e-01,4.13624874e-05,6.90658714,-1.84233404,-1,-0.9433568601051887
7.64182813e+02,7.99985061e+01,-8.72816278e-07,4.32696123,1.85522564,-3.84509859,7.50629170e-01,4.13624872e-05,6.91204851,-1.82636918,-1,-0.9417489750843009
7.82696621e+02,7.99984898e+01,-8.80355148e-07,4.33007550,1.84923310,-3.84509860,7.50629172e-01,4.13624870e-05,6.91752152,-1.81037020,-1,-0.9401332636344676
8.01975714e+02,7.99984725e+01,-8.88147006e-07,4.33325023,1.84311079,-3.84509860,7.50629174e-01,4.13624868e-05,6.92309286,-1.79408256,-1,-0.9384507652903938
8.21254808e+02,7.99984553e+01,-8.95938863e-07,4.33642496,1.83698847,-3.84509861,7.50629175e-01,4.13624866e-05,6.92866421,-1.77779491,-1,-0.9367682668590493
8.41300325e+02,7.99984369e+01,-9.06972716e-07,4.33966627,1.83072244,-3.84509861,7.50629176e-01,4.13624866e-05,6.93434658,-1.76118189,-1,-0.9350188822195021
8.61528689e+02,7.99984183e+01,-9.18155993e-07,4.34292258,1.82442346,-3.84509860,7.50629176e-01,4.13624865e-05,6.94005388,-1.74449589,-1,-0.9332535404094221
8.82374641e+02,7.99983989e+01,-9.28660039e-07,4.34622788,1.81801573,-3.84509860,7.50629177e-01,4.13624865e-05,6.94584233,-1.72757218,-1,-0.9314343013134417
9.03623848e+02,7.99983788e+01,-9.38983705e-07,4.34956275,1.81154005,-3.84509860,7.50629177e-01,4.13624864e-05,6.95167954,-1.71050593,-1,-0.9295798699047452
9.25227806e+02,7.99983602e+01,-8.91746140e-07,4.35292337,1.80500504,-3.84509861,7.50629180e-01,4.13624861e-05,6.95755913,-1.69331553,-1,-0.9276944791573465
9.47455971e+02,7.99983595e+01,-2.52460304e-07,4.35632697,1.79836947,-3.84509867,7.50629196e-01,4.13624842e-05,6.96350902,-1.67591730,-1,-0.9257546134798326
9.70177875e+02,7.99983588e+01,-3.01774121e-08,4.35975840,1.79166248,-3.84509873,7.50629213e-01,4.13624823e-05,6.96950527,-1.65838255,-1,-0.9237716588950808
9.93164558e+02,7.99983581e+01,-3.15223622e-08,4.36320476,1.78491719,-3.84509879,7.50629229e-01,4.13624804e-05,6.97552638,-1.64077459,-1,-0.9217655968835926
1.01704311e+03,7.99983573e+01,-3.29685860e-08,4.36669815,1.77804990,-3.84509884,7.50629245e-01,4.13624786e-05,6.98162837,-1.62292701,-1,-0.9196817009140633
1.04098877e+03,7.99983564e+01,-3.44587986e-08,4.37019543,1.77117298,-3.84509889,7.50629260e-01,4.13624768e-05,6.98773721,-1.60505923,-1,-0.9175919483879588
1.06578433e+03,7.99983555e+01,-3.66452455e-08,4.37374349,1.76417218,-3.84509894,7.50629277e-01,4.13624748e-05,6.99393572,-1.58692742,-1,-0.9154280245643441
1.09095873e+03,7.99983545e+01,-3.88131865e-08,4.37731071,1.75712280,-3.84509898,7.50629292e-01,4.13624731e-05,7.00016811,-1.56869513,-1,-0.9132310391401309
1.11658472e+03,7.99983535e+01,-4.09609173e-08,4.38090072,1.75001559,-3.84509901,7.50629305e-01,4.13624716e-05,7.00644087,-1.55034298,-1,-0.9109946431779219
1.14296203e+03,7.99983523e+01,-4.31415659e-08,4.38452732,1.74281574,-3.84509902,7.50629315e-01,4.13624704e-05,7.01278061,-1.53178875,-1,-0.9086926790556409
1.16990354e+03,7.99983511e+01,-4.51264393e-08,4.38817267,1.73556234,-3.84509903,7.50629323e-01,4.13624695e-05,7.01915647,-1.51312773,-1,-0.9063414768511674
1.19720780e+03,7.99983498e+01,-4.70166818e-08,4.39182993,1.72827505,-3.84509903,7.50629330e-01,4.13624687e-05,7.02555551,-1.49439801,-1,-0.9039586172303253
1.22547134e+03,7.99983484e+01,-4.90113069e-08,4.39551701,1.72090452,-3.84509904,7.50629338e-01,4.13624678e-05,7.03201554,-1.47548628,-1,-0.9014920406518699
1.25396508e+03,7.99983469e+01,-5.12281410e-08,4.39921340,1.71351107,-3.84509904,7.50629346e-01,4.13624668e-05,7.03849421,-1.45651855,-1,-0.8990053743773481
1.28324087e+03,7.99983453e+01,-5.41998557e-08,4.40294139,1.70603974,-3.84509905,7.50629356e-01,4.13624657e-05,7.04503622,-1.43736062,-1,-0.8964504581166893
1.31316404e+03,7.99983435e+01,-5.70907638e-08,4.40669141,1.69851306,-3.84509907,7.50629365e-01,4.13624647e-05,7.05162362,-1.41806504,-1,-0.8938390446039044
1.34364325e+03,7.99983417e+01,-5.99495677e-08,4.41045901,1.69094179,-3.84509909,7.50629375e-01,4.13624635e-05,7.05824828,-1.39865735,-1,-0.891179105137163
1.37472993e+03,7.99983398e+01,-6.27950788e-08,4.41424427,1.68332532,-3.84509912,7.50629389e-01,4.13624619e-05,7.06491147,-1.37913430,-1,-0.8884661513886256
1.40675031e+03,7.99983376e+01,-6.52305174e-08,4.41804821,1.67565774,-3.84509917,7.50629407e-01,4.13624598e-05,7.07162058,-1.35946941,-1,-0.8856717130648614
1.43936343e+03,7.99983354e+01,-6.77228018e-08,4.42186330,1.66796170,-3.84509921,7.50629425e-01,4.13624578e-05,7.07835836,-1.33971666,-1,-0.8828255459554917
1.47254078e+03,7.99983330e+01,-7.02691970e-08,4.42568900,1.66023858,-3.84509925,7.50629441e-01,4.13624558e-05,7.08512343,-1.31988028,-1,-0.8799301381458112
1.50657626e+03,7.99983305e+01,-7.37039550e-08,4.42953744,1.65246295,-3.84509926,7.50629452e-01,4.13624546e-05,7.09194095,-1.29988479,-1,-0.8769598408014415
1.54119735e+03,7.99983278e+01,-7.73758868e-08,4.43340067,1.64465362,-3.84509926,7.50629462e-01,4.13624534e-05,7.09879321,-1.27978322,-1,-0.8739384369109665
1.57653739e+03,7.99983249e+01,-8.09116377e-08,4.43728120,1.63680537,-3.84509927,7.50629474e-01,4.13624520e-05,7.10568690,-1.25955429,-1,-0.8708542898102962
1.61283901e+03,7.99983218e+01,-8.44114964e-08,4.44117896,1.62891665,-3.84509928,7.50629485e-01,4.13624508e-05,7.11262543,-1.23919093,-1,-0.8676862250295934
1.64994075e+03,7.99983185e+01,-8.75226379e-08,4.44508727,1.62100454,-3.84509931,7.50629496e-01,4.13624494e-05,7.11959560,-1.21872896,-1,-0.8644483332827017
1.68767023e+03,7.99983151e+01,-9.04957944e-08,4.44900307,1.61307628,-3.84509934,7.50629509e-01,4.13624480e-05,7.12658892,-1.19819455,-1,-0.8611556582786045
1.72640829e+03,7.99983114e+01,-9.35467866e-08,4.45292975,1.60512530,-3.84509938,7.50629522e-01,4.13624464e-05,7.13361699,-1.17755131,-1,-0.8577749638754688
1.76582257e+03,7.99983076e+01,-9.73059256e-08,4.45687034,1.59714617,-3.84509940,7.50629536e-01,4.13624448e-05,7.14067963,-1.15680392,-1,-0.8543352553356086
1.80597377e+03,7.99983035e+01,-1.01672929e-07,4.46082556,1.58913748,-3.84509939,7.50629550e-01,4.13624431e-05,7.14777894,-1.13594541,-1,-0.850831235332563
1.84715778e+03,7.99982991e+01,-1.05795287e-07,4.46479771,1.58109473,-3.84509940,7.50629556e-01,4.13624425e-05,7.15492286,-1.11494693,-1,-0.8472370813634257
1.88926172e+03,7.99982944e+01,-1.09844042e-07,4.46878153,1.57302830,-3.84509942,7.50629563e-01,4.13624417e-05,7.16209943,-1.09384850,-1,-0.8435626445354596
1.93229666e+03,7.99982895e+01,-1.13487619e-07,4.47277370,1.56494657,-3.84509947,7.50629574e-01,4.13624404e-05,7.16930338,-1.07266681,-1,-0.8398069587629331
1.97606575e+03,7.99982844e+01,-1.16864617e-07,4.47677160,1.55685511,-3.84509955,7.50629589e-01,4.13624387e-05,7.17652725,-1.05142356,-1,-0.8359872032668308
2.02110981e+03,7.99982789e+01,-1.20305125e-07,4.48077906,1.54874826,-3.84509963,7.50629602e-01,4.13624372e-05,7.18378401,-1.03007380,-1,-0.8320561803519894
2.06684311e+03,7.99982731e+01,-1.24433641e-07,4.48479817,1.54061965,-3.84509967,7.50629612e-01,4.13624361e-05,7.19106860,-1.00862555,-1,-0.8280650070369879
2.11345235e+03,7.99982671e+01,-1.29288101e-07,4.48883149,1.53246451,-3.84509967,7.50629618e-01,4.13624353e-05,7.19838721,-9.87055196e-01,-1,-0.8239973898976061
2.16126479e+03,7.99982607e+01,-1.33811240e-07,4.49287880,1.52428285,-3.84509969,7.50629630e-01,4.13624340e-05,7.20574029,-9.65344744e-01,-1,-0.8198247687516773
