star_age,star_mass,star_mdot,log_Teff,log_R,log_surf_z,surface_h1,surface_he3,log_center_T,log_center_Rho,phase,x
4.86206797e+02,1.91999988,-2.93153989e-10,3.70238334,1.46026003,-4.84509847,7.50949395e-01,4.13306749e-05,5.71304445,-3.10089948,-1,-1.0
5.09505233e+02,1.91999987,-2.88999218e-10,3.70262028,1.45748715,-4.84509847,7.50949395e-01,4.13306749e-05,5.71571893,-3.09289559,-1,-0.9999926097810701
5.33842542e+02,1.91999986,-2.84756902e-10,3.70286392,1.45464085,-4.84509847,7.50949395e-01,4.13306749e-05,5.71846444,-3.08468130,-1,-0.9999848900336298
5.59419522e+02,1.91999985,-2.80056599e-10,3.70311516,1.45170801,-4.84509847,7.50949395e-01,4.13306749e-05,5.72129368,-3.07621357,-1,-0.999976777064941
5.86161088e+02,1.91999985,-2.75130367e-10,3.70337200,1.44869568,-4.84509847,7.50949395e-01,4.13306749e-05,5.72420004,-3.06751721,-1,-0.9999682946918208
6.14122485e+02,1.91999984,-2.70038410e-10,3.70363603,1.44560241,-4.84509847,7.50949395e-01,4.13306749e-05,5.72718483,-3.05858626,-1,-0.999959425390662
6.43400461e+02,1.91999983,-2.64856844e-10,3.70390683,1.44242467,-4.84509847,7.50949395e-01,4.13306749e-05,5.73025138,-3.04940958,-1,-0.9999501384731854
6.74189701e+02,1.91999982,-2.59638941e-10,3.70418505,1.43915376,-4.84509847,7.50949395e-01,4.13306749e-05,5.73340838,-3.03996077,-1,-0.999940372185685
7.06359793e+02,1.91999982,-2.54372853e-10,3.70446984,1.43580127,-4.84509847,7.50949395e-01,4.13306749e-05,5.73664414,-3.03027683,-1,-0.9999301678945954
7.39964006e+02,1.91999981,-2.49074060e-10,3.70476116,1.43236703,-4.84509847,7.50949395e-01,4.13306749e-05,5.73995940,-3.02035445,-1,-0.9999195087030928
7.75350872e+02,1.91999980,-2.43744376e-10,3.70505965,1.42883562,-4.84509847,7.50949395e-01,4.13306749e-05,5.74336878,-3.01014799,-1,-0.9999082840574993
8.12270228e+02,1.91999979,-2.38379335e-10,3.70536556,1.42522424,-4.84509847,7.50949395e-01,4.13306749e-05,5.74685588,-2.99970867,-1,-0.9998965733090357
8.51005552e+02,1.91999978,-2.33032170e-10,3.70567824,1.42152223,-4.84509847,7.50949395e-01,4.13306749e-05,5.75043083,-2.98900523,-1,-0.9998842865390276
8.91527615e+02,1.91999977,-2.27698682e-10,3.70599753,1.41773508,-4.84509847,7.50949395e-01,4.13306749e-05,5.75408821,-2.97805500,-1,-0.9998714330188574
9.34002540e+02,1.91999976,-2.22359492e-10,3.70632630,1.41386223,-4.84509847,7.50949395e-01,4.13306750e-05,5.75782909,-2.96685555,-1,-0.99985796005463
9.78411528e+02,1.91999975,-2.16984244e-10,3.70666215,1.40990246,-4.84509847,7.50949395e-01,4.13306750e-05,5.76165372,-2.95540289,-1,-0.9998438736093521
1.02502975e+03,1.91999974,-2.11660704e-10,3.70700259,1.40585151,-4.84509847,7.50949395e-01,4.13306750e-05,5.76556713,-2.94368548,-1,-0.9998290863993136
1.07373098e+03,1.91999973,-2.06395638e-10,3.70734881,1.40171953,-4.84509847,7.50949395e-01,4.13306750e-05,5.76955913,-2.93173155,-1,-0.9998136384631578
1.12479109e+03,1.91999972,-2.01129191e-10,3.70770176,1.39749980,-4.84509847,7.50949395e-01,4.13306750e-05,5.77363700,-2.91951983,-1,-0.9997974422948191
1.17828757e+03,1.91999971,-1.95886746e-10,3.70806112,1.39319445,-4.84509847,7.50949395e-01,4.13306750e-05,5.77779820,-2.90705672,-1,-0.9997804733146191
1.23423039e+03,1.91999970,-1.90677952e-10,3.70842643,1.38880719,-4.84509847,7.50949395e-01,4.13306750e-05,5.78203955,-2.89435169,-1,-0.9997627283600926
1.29276010e+03,1.91999969,-1.85500694e-10,3.70879804,1.38433773,-4.84509847,7.50949395e-01,4.13306751e-05,5.78636186,-2.88140545,-1,-0.9997441628490513
1.35417804e+03,1.91999968,-1.80368143e-10,3.70917409,1.37978167,-4.84509847,7.50949395e-01,4.13306751e-05,5.79076864,-2.86820635,-1,-0.9997246811970287
1.41845366e+03,1.91999967,-1.75285971e-10,3.70955797,1.37514455,-4.84509847,7.50949395e-01,4.13306752e-05,5.79525487,-2.85477135,-1,-0.9997042930944258
1.48573175e+03,1.91999966,-1.70297441e-10,3.70994676,1.37042771,-4.84509847,7.50949395e-01,4.13306752e-05,5.79981875,-2.84110188,-1,-0.9996829526141341
1.55615516e+03,1.91999964,-1.65353917e-10,3.71034080,1.36563198,-4.84509847,7.50949395e-01,4.13306753e-05,5.80445951,-2.82720262,-1,-0.9996606144444093
1.62987860e+03,1.91999963,-1.60469154e-10,3.71074078,1.36075821,-4.84509847,7.50949395e-01,4.13306754e-05,5.80917641,-2.81307249,-1,-0.9996372295115381
1.70706025e+03,1.91999962,-1.55625858e-10,3.71114674,1.35580713,-4.84509847,7.50949395e-01,4.13306755e-05,5.81396908,-2.79871326,-1,-0.9996127476411297
1.78786887e+03,1.91999961,-1.50896981e-10,3.71155509,1.35078027,-4.84509847,7.50949395e-01,4.13306757e-05,5.81883617,-2.78412932,-1,-0.9995871153028378
1.87246402e+03,1.91999960,-1.46237574e-10,3.71196809,1.34567933,-4.84509847,7.50949395e-01,4.13306759e-05,5.82377671,-2.76932592,-1,-0.9995602818845386
1.96102167e+03,1.91999958,-1.41648405e-10,3.71238513,1.34050554,-4.84509847,7.50949395e-01,4.13306761e-05,5.82878906,-2.75430975,-1,-0.9995321915688875
2.05371962e+03,1.91999957,-1.37126289e-10,3.71280655,1.33526025,-4.84509847,7.50949395e-01,4.13306764e-05,5.83387139,-2.73908301,-1,-0.9995027879580677
2.15073964e+03,1.91999956,-1.32683694e-10,3.71323187,1.32994525,-4.84509847,7.50949395e-01,4.13306768e-05,5.83902175,-2.72365189,-1,-0.9994720133949863
2.25224951e+03,1.91999954,-1.28286788e-10,3.71366224,1.32456152,-4.84509847,7.50949395e-01,4.13306773e-05,5.84423958,-2.70801472,-1,-0.9994398146601507
2.35862309e+03,1.91999953,-1.24024087e-10,3.71409840,1.31910841,-4.84509847,7.50949395e-01,4.13306780e-05,5.84952556,-2.69217635,-1,-0.9994060731658909
2.46996015e+03,1.91999952,-1.19854633e-10,3.71453315,1.31359021,-4.84509847,7.50949395e-01,4.13306788e-05,5.85487596,-2.67614434,-1,-0.9993707572653553
2.58638509e+03,1.91999950,-1.15787928e-10,3.71497459,1.30800976,-4.84509847,7.50949395e-01,4.13306799e-05,5.86028806,-2.65992629,-1,-0.999333827499104
2.70841165e+03,1.91999949,-1.11823178e-10,3.71542066,1.30237004,-4.84509847,7.50949395e-01,4.13306813e-05,5.86563972,-2.64373260,-1,-0.9992951209098008
2.83605627e+03,1.91999948,-1.07957001e-10,3.71587050,1.29666701,-4.84509847,7.50949395e-01,4.13306831e-05,5.87116221,-2.62716599,-1,-0.999254632282709
2.96962750e+03,1.91999946,-1.04183653e-10,3.71632635,1.29090539,-4.84509847,7.50949395e-01,4.13306854e-05,5.87673810,-2.61043376,-1,-0.9992122637463646
3.10950956e+03,1.91999945,-1.00430356e-10,3.71678419,1.28508359,-4.84509847,7.50949395e-01,4.13306884e-05,5.88238469,-2.59350263,-1,-0.9991678934269249
3.25587805e+03,1.91999943,-9.67835948e-11,3.71724402,1.27920391,-4.84509847,7.50949395e-01,4.13306922e-05,5.88809114,-2.57639444,-1,-0.999121465624409
3.40900577e+03,1.91999942,-9.33289247e-11,3.71771159,1.27327199,-4.84509847,7.50949395e-01,4.13306972e-05,5.89384900,-2.55913301,-1,-0.9990728938071833
3.56944200e+03,1.91999940,-9.00128077e-11,3.71817768,1.26728789,-4.84509847,7.50949395e-01,4.13307038e-05,5.89966124,-2.54170958,-1,-0.9990220037446922
3.73724660e+03,1.91999939,-8.67645326e-11,3.71864750,1.26125526,-4.84509847,7.50949395e-01,4.13307123e-05,5.90552255,-2.52414097,-1,-0.9989687764494589
3.91295257e+03,1.91999937,-8.35669650e-11,3.71912044,1.25517434,-4.84509847,7.50949395e-01,4.13307233e-05,5.91143092,-2.50642942,-1,-0.9989130428549126
4.09674470e+03,1.91999936,-8.04496114e-11,3.71959723,1.24904580,-4.84509847,7.50949395e-01,4.13307377e-05,5.91738696,-2.48857294,-1,-0.9988547443460215
4.28921824e+03,1.91999934,-7.74321977e-11,3.72007500,1.24286988,-4.84509847,7.50949395e-01,4.13307566e-05,5.92339073,-2.47056890,-1,-0.998793692110635
4.49057409e+03,1.91999933,-7.45052448e-11,3.72055512,1.23664984,-4.84509847,7.50949395e-01,4.13307811e-05,5.92943944,-2.45243339,-1,-0.9987298224236605
4.70134283e+03,1.91999931,-7.16633571e-11,3.72103725,1.23038634,-4.84509847,7.50949395e-01,4.13308132e-05,5.93553228,-2.43416576,-1,-0.9986629669861462
4.92198021e+03,1.91999930,-6.89259558e-11,3.72152155,1.22408099,-4.84509847,7.50949395e-01,4.13308552e-05,5.94166835,-2.41577325,-1,-0.9985929812350718
5.15273266e+03,1.91999928,-6.62704934e-11,3.72200850,1.21773673,-4.84509847,7.50949395e-01,4.13309098e-05,5.94784352,-2.39726236,-1,-0.9985197870033169
5.39448832e+03,1.91999927,-6.36968823e-11,3.72249543,1.21135168,-4.84509847,7.50949395e-01,4.13309818e-05,5.95405983,-2.37862683,-1,-0.9984431025745879
5.64722148e+03,1.91999925,-6.12059035e-11,3.72298395,1.20493113,-4.84509847,7.50949395e-01,4.13310754e-05,5.96031124,-2.35988250,-1,-0.9983629361040469
5.91195492e+03,1.91999924,-5.87905657e-11,3.72347231,1.19847394,-4.84509847,7.50949395e-01,4.13311986e-05,5.96659974,-2.34102502,-1,-0.9982789631678523
6.18895523e+03,1.91999922,-5.64752193e-11,3.72396260,1.19198105,-4.84509847,7.50949395e-01,4.13313600e-05,5.97292484,-2.32205494,-1,-0.9981910992041703
6.47861535e+03,1.91999920,-5.42306467e-11,3.72445668,1.18545583,-4.84509847,7.50949395e-01,4.13315703e-05,5.97928313,-2.30298964,-1,-0.9980992195731917
6.78215084e+03,1.91999919,-5.20628674e-11,3.72494744,1.17889829,-4.84509847,7.50949395e-01,4.13318481e-05,5.98567462,-2.28382575,-1,-0.9980029387016305
7.09963767e+03,1.91999917,-4.99747557e-11,3.72543812,1.17231116,-4.84509847,7.50949395e-01,4.13322115e-05,5.99209564,-2.26457327,-1,-0.9979022324919493
7.43167978e+03,1.91999916,-4.79572190e-11,3.72592582,1.16569673,-4.84509847,7.50949395e-01,4.13326860e-05,5.99854419,-2.24523305,-1,-0.997796909375546
7.77948835e+03,1.91999914,-4.60074106e-11,3.72641611,1.15905200,-4.84509847,7.50949394e-01,4.13333112e-05,6.00502427,-2.22579645,-1,-0.9976865851684621
8.14346774e+03,1.91999912,-4.41392346e-11,3.72690756,1.15238236,-4.84509847,7.50949394e-01,4.13341316e-05,6.01153110,-2.20627923,-1,-0.9975711316084862
8.52420616e+03,1.91999911,-4.23359422e-11,3.72739839,1.14568798,-4.84509847,7.50949394e-01,4.13352048e-05,6.01806460,-2.18668636,-1,-0.9974503621165417
8.92251069e+03,1.91999909,-4.05941812e-11,3.72788685,1.13897031,-4.84509847,7.50949393e-01,4.13366083e-05,6.02462266,-2.16702274,-1,-0.9973240206884103
9.33983879e+03,1.91999907,-3.89277357e-11,3.72838221,1.13223040,-4.84509847,7.50949393e-01,4.13384608e-05,6.03120312,-2.14729018,-1,-0.997191645020593
9.77641660e+03,1.91999906,-3.73192691e-11,3.72887138,1.12547125,-4.84509847,7.50949392e-01,4.13408858e-05,6.03780308,-2.12749506,-1,-0.9970531633819185
1.02331893e+04,1.91999904,-3.57717041e-11,3.72936328,1.11869396,-4.84509847,7.50949391e-01,4.13440581e-05,6.04442236,-2.10763758,-1,-0.9969082759631149
1.07111276e+04,1.91999902,-3.42851234e-11,3.72985246,1.11190168,-4.84509847,7.50949389e-01,4.13482066e-05,6.05105808,-2.08772992,-1,-0.996756674856844
1.12114329e+04,1.91999901,-3.28589180e-11,3.73033667,1.10509532,-4.84509847,7.50949388e-01,4.13536479e-05,6.05771021,-2.06777777,-1,-0.9965979789813446
1.17352404e+04,1.91999899,-3.14843710e-11,3.73081888,1.09827782,-4.84509847,7.50949385e-01,4.13607875e-05,6.06437533,-2.04778937,-1,-0.9964318282533678
1.22833621e+04,1.91999897,-3.01694870e-11,3.73130068,1.09145152,-4.84509847,7.50949382e-01,4.13701202e-05,6.07105059,-2.02777299,-1,-0.9962579651080808
1.28569343e+04,1.91999896,-2.89064314e-11,3.73178086,1.08462153,-4.84509847,7.50949378e-01,4.13823061e-05,6.07773002,-2.00774058,-1,-0.996076029113317
1.34571637e+04,1.91999894,-2.76952173e-11,3.73225928,1.07779183,-4.84509847,7.50949373e-01,4.13981971e-05,6.08440998,-1.98770480,-1,-0.9958856375061654
1.40853347e+04,1.91999892,-2.65278569e-11,3.73273395,1.07096766,-4.84509847,7.50949366e-01,4.14188920e-05,6.09108501,-1.96768110,-1,-0.9956863828774251
1.47432892e+04,1.91999891,-2.54214843e-11,3.73320756,1.06415502,-4.84509847,7.50949357e-01,4.14459273e-05,6.09775057,-1.94768578,-1,-0.995477680979971
1.54321373e+04,1.91999889,-2.43644745e-11,3.73367732,1.05736415,-4.84509847,7.50949345e-01,4.14811347e-05,6.10439709,-1.92774494,-1,-0.9952591796922261
1.61532330e+04,1.91999887,-2.33528157e-11,3.73414516,1.05060333,-4.84509847,7.50949330e-01,4.15268047e-05,6.11101655,-1.90788571,-1,-0.9950304495280037
1.69080909e+04,1.91999886,-2.23874631e-11,3.73460588,1.04388395,-4.84509847,7.50949310e-01,4.15858660e-05,6.11759734,-1.88814488,-1,-0.9947910100591071
1.76984013e+04,1.91999884,-2.14671796e-11,3.73506065,1.03722208,-4.84509847,7.50949285e-01,4.16619721e-05,6.12412309,-1.86857171,-1,-0.994540325125639
1.85261765e+04,1.91999882,-2.05972705e-11,3.73550829,1.03063371,-4.84509847,7.50949252e-01,4.17598460e-05,6.13057783,-1.84921051,-1,-0.9942777564299231
1.93939499e+04,1.91999880,-1.97729646e-11,3.73594753,1.02414224,-4.84509847,7.50949210e-01,4.18856476e-05,6.13693869,-1.83013124,-1,-0.9940025003823696
2.03028605e+04,1.91999879,-1.89948872e-11,3.73637824,1.01776932,-4.84509847,7.50949157e-01,4.20455466e-05,6.14318487,-1.81139311,-1,-0.9937141956943767
2.12548362e+04,1.91999877,-1.82604452e-11,3.73679823,1.01154005,-4.84509847,7.50949090e-01,4.22470726e-05,6.14929191,-1.79307245,-1,-0.9934122308397856
2.22537545e+04,1.91999875,-1.75795515e-11,3.73720259,1.00549149,-4.84509847,7.50949005e-01,4.25011978e-05,6.15522322,-1.77527749,-1,-0.9930953758830804
2.33006834e+04,1.91999873,-1.69432228e-11,3.73759177,9.99651191e-01,-4.84509847,7.50948900e-01,4.28164744e-05,6.16095102,-1.75809337,-1,-0.9927632920567225
2.43988531e+04,1.91999871,-1.63532064e-11,3.73796252,9.94052484e-01,-4.84509847,7.50948771e-01,4.32042946e-05,6.16644299,-1.74162017,-1,-0.9924149547475066
2.55502004e+04,1.91999870,-1.58102083e-11,3.73831502,9.88719143e-01,-4.84509847,7.50948614e-01,4.36740674e-05,6.17167472,-1.72592583,-1,-0.9920497496062112
2.67595726e+04,1.91999868,-1.53147270e-11,3.73864665,9.83684318e-01,-4.84509847,7.50948426e-01,4.42389125e-05,6.17661407,-1.71110878,-1,-0.991666139078632
2.80277544e+04,1.91999866,-1.48619251e-11,3.73895765,9.78947230e-01,-4.84509847,7.50948204e-01,4.49032693e-05,6.18126207,-1.69716455,-1,-0.9912638742594437
2.93581892e+04,1.91999864,-1.44498141e-11,3.73925110,9.74511109e-01,-4.84509847,7.50947948e-01,4.56729869e-05,6.18561536,-1.68410551,-1,-0.9908418629088127
3.07539254e+04,1.91999862,-1.40750470e-11,3.73952449,9.70358099e-01,-4.84509847,7.50947656e-01,4.65498107e-05,6.18969161,-1.67187758,-1,-0.9903991380801427
3.22175084e+04,1.91999860,-1.37314926e-11,3.73977875,9.66453961e-01,-4.84509847,7.50947329e-01,4.75306787e-05,6.19352413,-1.66038078,-1,-0.9899348923774667
3.37503564e+04,1.91999858,-1.34152215e-11,3.74001939,9.62748959e-01,-4.84509847,7.50946970e-01,4.86077062e-05,6.19716223,-1.64946839,-1,-0.9894486759504819
3.53610820e+04,1.91999856,-1.31198781e-11,3.74025094,9.59193953e-01,-4.84509847,7.50946580e-01,4.97777336e-05,6.20065330,-1.63899702,-1,-0.988937756899092
3.70474380e+04,1.91999854,-1.28380375e-11,3.74047916,9.55707735e-01,-4.84509847,7.50946165e-01,5.10210203e-05,6.20407732,-1.62872434,-1,-0.9884028480307997
3.88123427e+04,1.91999851,-1.25633577e-11,3.74070303,9.52219818e-01,-4.84509847,7.50945731e-01,5.23236382e-05,6.20750364,-1.61844504,-1,-0.9878430236664775
4.06640463e+04,1.91999849,-1.22871120e-11,3.74093294,9.48644184e-01,-4.84509847,7.50945282e-01,5.36700468e-05,6.21101614,-1.60790717,-1,-0.9872556668586095
4.25969799e+04,1.91999847,-1.20077467e-11,3.74117241,9.44914884e-01,-4.84509847,7.50944826e-01,5.50381903e-05,6.21468005,-1.59691415,-1,-0.9866425440515272
4.46266263e+04,1.91999844,-1.17149988e-11,3.74142870,9.40911917e-01,-4.84509847,7.50944370e-01,5.64060228e-05,6.21861347,-1.58511427,-1,-0.9859987441309542
4.67440406e+04,1.91999842,-1.14040675e-11,3.74170495,9.36579293e-01,-4.84509847,7.50943923e-01,5.77484015e-05,6.22287094,-1.57234214,-1,-0.9853271044019059
4.89560198e+04,1.91999839,-1.10663554e-11,3.74200732,9.31810582e-01,-4.84509847,7.50943493e-01,5.90365565e-05,6.22755743,-1.55828412,-1,-0.9846254688691012
5.12671344e+04,1.91999837,-1.07026757e-11,3.74234635,9.26488193e-01,-4.84509847,7.50943094e-01,6.02332818e-05,6.23278826,-1.54259046,-1,-0.9838923877787621
5.36770351e+04,1.91999834,-1.03082307e-11,3.74272334,9.20512978e-01,-4.84509847,7.50942739e-01,6.12997046e-05,6.23866129,-1.52497053,-1,-0.9831279719281741
5.61832456e+04,1.91999832,-9.87990950e-12,3.74314335,9.13821186e-01,-4.84509847,7.50942438e-01,6.22025130e-05,6.24523956,-1.50523479,-1,-0.9823330067949179
5.87894528e+04,1.91999829,-9.42034990e-12,3.74360993,9.06336779e-01,-4.84509847,7.50942205e-01,6.29023740e-05,6.25259856,-1.48315463,-1,-0.9815063229014296
6.14941057e+04,1.91999827,-8.93728505e-12,3.74411765,8.98099374e-01,-4.84509847,7.50942043e-01,6.33888574e-05,6.26070028,-1.45884572,-1,-0.9806484122219155
6.43043317e+04,1.91999825,-8.44500093e-12,3.74466272,8.89218275e-01,-4.84509847,7.50941948e-01,6.36716824e-05,6.26943759,-1.43262584,-1,-0.9797570139588525
6.72252267e+04,1.91999822,-7.95893136e-12,3.74522898,8.79931823e-01,-4.84509847,7.50941907e-01,6.37966414e-05,6.27790281,-1.40417211,-1,-0.9788305117025965
7.02704959e+04,1.91999820,-7.49452678e-12,3.74580018,8.70547043e-01,-4.84509847,7.50941896e-01,6.38287102e-05,6.28529575,-1.37317362,-1,-0.9778645581901604
7.34565739e+04,1.91999818,-7.06451984e-12,3.74636354,8.61250178e-01,-4.84509847,7.50941891e-01,6.38435965e-05,6.29301780,-1.34229124,-1,-0.9768539403981453
7.67926197e+04,1.91999815,-6.66405130e-12,3.74691620,8.52074572e-01,-4.84509847,7.50941888e-01,6.38515188e-05,6.30065455,-1.31204077,-1,-0.9757957531094297
8.02861874e+04,1.91999813,-6.29196873e-12,3.74746390,8.43028810e-01,-4.84509847,7.50941887e-01,6.38563875e-05,6.30827703,-1.28207308,-1,-0.9746876001780737
8.39440894e+04,1.91999811,-5.94474859e-12,3.74800080,8.34112284e-01,-4.84509847,7.50941886e-01,6.38582884e-05,6.31585646,-1.25231370,-1,-0.9735273207239462
8.77734502e+04,1.91999809,-5.62211268e-12,3.74852641,8.25324436e-01,-4.84509847,7.50941886e-01,6.38589118e-05,6.32337756,-1.22272405,-1,-0.9723126548693988
9.17820482e+04,1.91999806,-5.32041405e-12,3.74904375,8.16664163e-01,-4.84509847,7.50941886e-01,6.38590952e-05,6.33083088,-1.19327031,-1,-0.9710411353209647
9.59781034e+04,1.91999804,-5.03963796e-12,3.74955577,8.08128836e-01,-4.84509847,7.50941886e-01,6.38591431e-05,6.33823082,-1.16393898,-1,-0.9697101547105098
1.00374796e+05,1.91999802,-4.77708734e-12,3.75006802,7.99716451e-01,-4.84509847,7.50941886e-01,6.38591539e-05,6.34557563,-1.13469673,-1,-0.9683155323040337
1.04975792e+05,1.91999800,-4.53201289e-12,3.75056937,7.91423819e-01,-4.84509847,7.50941886e-01,6.38591562e-05,6.35286161,-1.10551807,-1,-0.9668561052534121
1.09793133e+05,1.91999798,-4.30252538e-12,3.75106694,7.83249330e-01,-4.84509847,7.50941887e-01,6.38591566e-05,6.36009516,-1.07637911,-1,-0.9653280539863675
1.14838601e+05,1.91999796,-4.08796935e-12,3.75156746,7.75190740e-01,-4.84509847,7.50941887e-01,6.38591566e-05,6.36728516,-1.04725314,-1,-0.9637276412752404
1.20119219e+05,1.91999794,-3.88663140e-12,3.75206327,7.67245950e-01,-4.84509847,7.50941887e-01,6.38591566e-05,6.37443731,-1.01812934,-1,-0.9620526394379864
1.25650588e+05,1.91999792,-3.69868641e-12,3.75255326,7.59416598e-01,-4.84509847,7.50941887e-01,6.38591565e-05,6.38155797,-9.88992935e-01,-1,-0.9602980998675176
1.31440153e+05,1.91999790,-3.52223751e-12,3.75304233,7.51700913e-01,-4.84509847,7.50941887e-01,6.38591565e-05,6.38865641,-9.59824009e-01,-1,-0.9584616610242038
1.37503739e+05,1.91999788,-3.35675654e-12,3.75353148,7.44099193e-01,-4.84509847,7.50941888e-01,6.38591564e-05,6.39574038,-9.30610279e-01,-1,-0.9565383032485897
1.43853624e+05,1.91999785,-3.20159910e-12,3.75402176,7.36612769e-01,-4.84509847,7.50941888e-01,6.38591564e-05,6.40281643,-9.01329836e-01,-1,-0.9545241319827735
1.50498953e+05,1.91999783,-3.05539844e-12,3.75451194,7.29240658e-01,-4.84509847,7.50941888e-01,6.38591563e-05,6.40989244,-8.71972427e-01,-1,-0.9524162464504063
1.57464766e+05,1.91999781,-2.91950680e-12,3.75500798,7.21988001e-01,-4.84509847,7.50941889e-01,6.38591562e-05,6.41697580,-8.42518638e-01,-1,-0.9502067040118191
1.64756456e+05,1.91999779,-2.79154638e-12,3.75550851,7.14853665e-01,-4.84509847,7.50941889e-01,6.38591562e-05,6.42407576,-8.12956511e-01,-1,-0.9478937940178208
1.72390118e+05,1.91999777,-2.67138632e-12,3.75601552,7.07840349e-01,-4.84509847,7.50941890e-01,6.38591561e-05,6.43120073,-7.83262285e-01,-1,-0.9454724111654773
