star_age,star_mass,star_mdot,log_L,log_Teff,log_R,log_surf_z,v_wind_Km_per_s,log_center_T,log_center_Rho,phase,x
1.96877939e+03,4.49999969e-01,-1.39376226e-11,1.34195852,3.67375061,8.46155200e-01,-3.84509847,4.23634306e-05,5.71320965,-1.86030303,-1,-1.0
2.08210216e+03,4.49999968e-01,-1.36980947e-11,1.33712973,3.67389316,8.43455701e-01,-3.84509847,4.21310346e-05,5.71573312,-1.85277300,-1,-0.999999014063985
2.20189254e+03,4.49999966e-01,-1.34547856e-11,1.33212008,3.67404247,8.40652252e-01,-3.84509847,4.18950768e-05,5.71835431,-1.84494996,-1,-0.9999979718581696
2.32843981e+03,4.49999964e-01,-1.32063422e-11,1.32690709,3.67419327,8.37744152e-01,-3.84509847,4.16465137e-05,5.72107374,-1.83683324,-1,-0.9999968708657468
2.46202835e+03,4.49999963e-01,-1.29528991e-11,1.32150127,3.67434846,8.34730878e-01,-3.84509847,4.13869752e-05,5.72389247,-1.82841952,-1,-0.9999957086125405
2.60293591e+03,4.49999961e-01,-1.26952309e-11,1.31590193,3.67450790,8.31612313e-01,-3.84509847,4.11183295e-05,5.72681052,-1.81970856,-1,-0.9999944826820572
2.75234016e+03,4.49999959e-01,-1.24333507e-11,1.31008633,3.67467204,8.28376233e-01,-3.84509847,4.08400929e-05,5.72983951,-1.81066544,-1,-0.9999931828282776
2.91036539e+03,4.49999957e-01,-1.21678681e-11,1.30405805,3.67483970,8.25026785e-01,-3.84509847,4.05521146e-05,5.73297589,-1.80130066,-1,-0.9999918079698485
3.07696874e+03,4.49999955e-01,-1.18980795e-11,1.29782946,3.67501154,8.21568791e-01,-3.84509847,4.02513445e-05,5.73621489,-1.79162912,-1,-0.9999903584796623
3.25340498e+03,4.49999953e-01,-1.16266217e-11,1.29138322,3.67518845,8.17991866e-01,-3.84509847,3.99452519e-05,5.73956637,-1.78162017,-1,-0.9999888234409108
3.43966241e+03,4.49999951e-01,-1.13534795e-11,1.28472736,3.67536935,8.14302135e-01,-3.84509847,3.96314593e-05,5.74302502,-1.77129015,-1,-0.9999872029553869
3.63666375e+03,4.49999949e-01,-1.10777338e-11,1.27791015,3.67556917,8.10493884e-01,-3.84509847,3.93180094e-05,5.74659572,-1.76062537,-1,-0.9999854889951993
3.84486766e+03,4.49999946e-01,-1.08021964e-11,1.27084919,3.67576666,8.06568425e-01,-3.84509847,3.89953476e-05,5.75027761,-1.74962568,-1,-0.9999836775698931
4.06462227e+03,4.49999944e-01,-1.05236060e-11,1.26354238,3.67595988,8.02528574e-01,-3.84509847,3.86533409e-05,5.75406807,-1.73829948,-1,-0.9999817656506516
4.29708938e+03,4.49999942e-01,-1.02441179e-11,1.25600737,3.67615599,7.98368850e-01,-3.84509847,3.83014941e-05,5.75797221,-1.72663352,-1,-0.9999797431295283
4.54293722e+03,4.49999939e-01,-9.96422862e-12,1.24827130,3.67636132,7.94090169e-01,-3.84509847,3.79441548e-05,5.76198969,-1.71462799,-1,-0.9999776041927578
4.80244094e+03,4.49999937e-01,-9.68450271e-12,1.24029570,3.67656420,7.89696608e-01,-3.84509847,3.75743265e-05,5.76611649,-1.70229476,-1,-0.9999753464464674
5.07651788e+03,4.49999934e-01,-9.40530445e-12,1.23209918,3.67676972,7.85187294e-01,-3.84509847,3.71960789e-05,5.77035398,-1.68963099,-1,-0.999972961909573
5.36610524e+03,4.49999932e-01,-9.12714347e-12,1.22370712,3.67698459,7.80561540e-01,-3.84509847,3.68169840e-05,5.77470326,-1.67663161,-1,-0.9999704424282037
5.67219024e+03,4.49999929e-01,-8.85033503e-12,1.21506130,3.67719413,7.75819543e-01,-3.84509847,3.64219359e-05,5.77916371,-1.66330013,-1,-0.9999677794133023
5.99557174e+03,4.49999926e-01,-8.57442445e-12,1.20619309,3.67740506,7.70963584e-01,-3.84509847,3.60147776e-05,5.78373334,-1.64963912,-1,-0.99996496591459
6.33733788e+03,4.49999923e-01,-8.30152765e-12,1.19711293,3.67761798,7.65997661e-01,-3.84509847,3.56016953e-05,5.78833934,-1.63577749,-1,-0.999961992464981
6.69849181e+03,4.49999920e-01,-8.03179380e-12,1.18781817,3.67783229,7.60921662e-01,-3.84509847,3.51825737e-05,5.79309992,-1.62151795,-1,-0.9999588503368229
7.08005116e+03,4.49999917e-01,-7.76459305e-12,1.17832306,3.67805162,7.55735435e-01,-3.84509847,3.47580501e-05,5.79794436,-1.60697901,-1,-0.9999555306764841
7.48303112e+03,4.49999914e-01,-7.50087345e-12,1.16859956,3.67826846,7.50440021e-01,-3.84509847,3.43251657e-05,5.80292975,-1.59205780,-1,-0.9999520246515615
7.90853599e+03,4.49999911e-01,-7.24065131e-12,1.15867052,3.67848605,7.45040313e-01,-3.84509847,3.38841201e-05,5.80801734,-1.57683110,-1,-0.9999483226543732
8.35774922e+03,4.49999908e-01,-6.98437891e-12,1.14856350,3.67871089,7.39537125e-01,-3.84509847,3.34413777e-05,5.81320501,-1.56130363,-1,-0.9999444143886124
8.83262472e+03,4.49999905e-01,-6.73275643e-12,1.13821913,3.67892916,7.33928402e-01,-3.84509847,3.29895453e-05,5.81849877,-1.54545962,-1,-0.999940282854781
9.33425835e+03,4.49999901e-01,-6.48559277e-12,1.12767497,3.67914662,7.28221392e-01,-3.84509847,3.25312635e-05,5.82388809,-1.52933043,-1,-0.999935918518627
9.86378042e+03,4.49999898e-01,-6.24304392e-12,1.11694037,3.67936513,7.22417082e-01,-3.84509847,3.20690555e-05,5.82937316,-1.51291347,-1,-0.9999313115461749
1.04232511e+04,4.49999895e-01,-6.00565820e-12,1.10605733,3.67959430,7.16517220e-01,-3.84509847,3.16085682e-05,5.83495141,-1.49621974,-1,-0.9999264440134381
1.10140450e+04,4.49999891e-01,-5.77426855e-12,1.09493586,3.67980964,7.10525803e-01,-3.84509847,3.11394725e-05,5.84061954,-1.47925540,-1,-0.9999213039609712
1.16378747e+04,4.49999888e-01,-5.54776089e-12,1.08362993,3.68002352,7.04445080e-01,-3.84509847,3.06643112e-05,5.84637478,-1.46202940,-1,-0.9999158764889063
1.22970174e+04,4.49999884e-01,-5.32712829e-12,1.07217888,3.68024438,6.98277832e-01,-3.84509847,3.01944867e-05,5.85221428,-1.44454814,-1,-0.9999101417850422
1.29925524e+04,4.49999881e-01,-5.11184667e-12,1.06051294,3.68045315,6.92027323e-01,-3.84509847,2.97122839e-05,5.85813573,-1.42681754,-1,-0.9999040904592034
1.37276337e+04,4.49999877e-01,-4.90243696e-12,1.04867847,3.68066061,6.85695158e-01,-3.84509847,2.92280899e-05,5.86413836,-1.40884250,-1,-0.9998976950708125
1.45035626e+04,4.49999873e-01,-4.69854547e-12,1.03666106,3.68086175,6.79284181e-01,-3.84509847,2.87376202e-05,5.87021980,-1.39062895,-1,-0.9998909442982392
1.53224297e+04,4.49999870e-01,-4.50093089e-12,1.02448597,3.68106105,6.72798038e-01,-3.84509847,2.82478667e-05,5.87637665,-1.37218899,-1,-0.9998838199527486
1.61879898e+04,4.49999866e-01,-4.30936431e-12,1.01216070,3.68125974,6.66238026e-01,-3.84509847,2.77582544e-05,5.88260721,-1.35352326,-1,-0.9998762893666554
1.71018704e+04,4.49999862e-01,-4.12391123e-12,9.99682479e-01,3.68145475,6.59608886e-01,-3.84509847,2.72686367e-05,5.88890652,-1.33465127,-1,-0.999868338380309
1.80665452e+04,4.49999858e-01,-3.94431529e-12,9.87055516e-01,3.68164546,6.52913986e-01,-3.84509847,2.67772565e-05,5.89527122,-1.31558326,-1,-0.9998599454719098
1.90849312e+04,4.49999854e-01,-3.77094084e-12,9.74273546e-01,3.68182834,6.46157247e-01,-3.84509847,2.62853092e-05,5.90169724,-1.29632999,-1,-0.9998510852628393
2.01601221e+04,4.49999850e-01,-3.60332016e-12,9.61354568e-01,3.68200718,6.39340068e-01,-3.84509847,2.57927536e-05,5.90818406,-1.27689243,-1,-0.9998417308371454
2.12956790e+04,4.49999846e-01,-3.44135720e-12,9.48298582e-01,3.68218002,6.32466409e-01,-3.84509847,2.52993238e-05,5.91472847,-1.25728087,-1,-0.999831851212381
2.24946832e+04,4.49999842e-01,-3.28587946e-12,9.35103221e-01,3.68234465,6.25539469e-01,-3.84509847,2.48082093e-05,5.92132762,-1.23750209,-1,-0.9998214195804769
2.37608019e+04,4.49999838e-01,-3.13588849e-12,9.21807089e-01,3.68250848,6.18563741e-01,-3.84509847,2.43193213e-05,5.92797688,-1.21757040,-1,-0.9998104040358896
2.50975700e+04,4.49999834e-01,-2.99182524e-12,9.08382985e-01,3.68266233,6.11543976e-01,-3.84509847,2.38321824e-05,5.93467165,-1.19750102,-1,-0.9997987738241185
2.65089496e+04,4.49999830e-01,-2.85317732e-12,8.94855985e-01,3.68281089,6.04483366e-01,-3.84509847,2.33454928e-05,5.94140880,-1.17730391,-1,-0.9997864944739177
2.79991186e+04,4.49999826e-01,-2.72014288e-12,8.81206808e-01,3.68294665,5.97387250e-01,-3.84509847,2.28589193e-05,5.94818399,-1.15699150,-1,-0.9997735296365275
2.95726595e+04,4.49999822e-01,-2.59248514e-12,8.67465472e-01,3.68307333,5.90263221e-01,-3.84509847,2.23736337e-05,5.95499002,-1.13658503,-1,-0.9997598394430696
3.12341962e+04,4.49999818e-01,-2.47044049e-12,8.53653299e-01,3.68319371,5.83116390e-01,-3.84509847,2.18945152e-05,5.96182191,-1.11609741,-1,-0.9997453836644746
3.29886384e+04,4.49999813e-01,-2.35358318e-12,8.39771456e-01,3.68330367,5.75955532e-01,-3.84509847,2.14174688e-05,5.96867042,-1.09555837,-1,-0.9997301195851431
3.48412582e+04,4.49999809e-01,-2.24195555e-12,8.25836116e-01,3.68340202,5.68791178e-01,-3.84509847,2.09434715e-05,5.97552504,-1.07500080,-1,-0.9997140013365066
3.67977306e+04,4.49999805e-01,-2.13552657e-12,8.11878581e-01,3.68349036,5.61635716e-01,-3.84509847,2.04744830e-05,5.98237365,-1.05445853,-1,-0.9996969795446667
3.88641042e+04,4.49999801e-01,-2.03429388e-12,7.97930024e-01,3.68356858,5.54504995e-01,-3.84509847,2.00118884e-05,5.98920203,-1.03397459,-1,-0.9996790015853138
4.10468952e+04,4.49999796e-01,-1.93825409e-12,7.84030004e-01,3.68363743,5.47417295e-01,-3.84509847,1.95572941e-05,5.99599288,-1.01360066,-1,-0.9996600107659024
4.33530834e+04,4.49999792e-01,-1.84738311e-12,7.70217696e-01,3.68369451,5.40396979e-01,-3.84509847,1.91108398e-05,6.00272328,-9.93407578e-01,-1,-0.9996399463604532
4.57904289e+04,4.49999788e-01,-1.76152944e-12,7.56560012e-01,3.68374233,5.33472494e-01,-3.84509847,1.86734386e-05,6.00936539,-9.73479299e-01,-1,-0.9996187408541846
4.83670652e+04,4.49999783e-01,-1.68143494e-12,7.43136572e-01,3.68378245,5.26680534e-01,-3.84509847,1.82538951e-05,6.01588335,-9.53924965e-01,-1,-0.9995963234836428
5.10921092e+04,4.49999779e-01,-1.60658264e-12,7.30025610e-01,3.68381503,5.20059900e-01,-3.84509847,1.78486865e-05,6.02223952,-9.34854011e-01,-1,-0.9995726149295522
5.39749256e+04,4.49999774e-01,-1.53727759e-12,7.17297329e-01,3.68383322,5.13659378e-01,-3.84509847,1.74597480e-05,6.02838660,-9.16406604e-01,-1,-0.9995475337167157
5.70253442e+04,4.49999770e-01,-1.47345047e-12,7.05075728e-01,3.68384295,5.07529122e-01,-3.84509847,1.70895084e-05,6.03427639,-8.98729199e-01,-1,-0.9995209943234519
6.02524216e+04,4.49999765e-01,-1.41522633e-12,6.93471798e-01,3.68384976,5.01713524e-01,-3.84509847,1.67436343e-05,6.03986603,-8.81949135e-01,-1,-0.9994929179551096
6.36728462e+04,4.49999761e-01,-1.36270046e-12,6.82575511e-01,3.68384641,4.96272087e-01,-3.84509847,1.64209550e-05,6.04509813,-8.66241417e-01,-1,-0.9994631594184981
6.72919502e+04,4.49999756e-01,-1.31560255e-12,6.72430187e-01,3.68383258,4.91227078e-01,-3.84509847,1.61226969e-05,6.04995073,-8.51672985e-01,-1,-0.9994316723221636
7.11288469e+04,4.49999751e-01,-1.27365500e-12,6.63142163e-01,3.68381941,4.86609416e-01,-3.84509847,1.58506517e-05,6.05439368,-8.38335692e-01,-1,-0.9993982903756878
7.51910740e+04,4.49999746e-01,-1.23687470e-12,6.54677769e-01,3.68380559,4.82404849e-01,-3.84509847,1.56092555e-05,6.05844005,-8.26188369e-01,-1,-0.9993629479992239
7.94911411e+04,4.49999741e-01,-1.20424921e-12,6.46961876e-01,3.68378717,4.78583747e-01,-3.84509847,1.53900881e-05,6.06211825,-8.15148009e-01,-1,-0.99932553635617
8.40402915e+04,4.49999735e-01,-1.17522284e-12,6.39901464e-01,3.68376921,4.75089455e-01,-3.84509847,1.51929702e-05,6.06548246,-8.05048384e-01,-1,-0.9992859576270469
8.88595882e+04,4.49999730e-01,-1.14913503e-12,6.33356212e-01,3.68374938,4.71856499e-01,-3.84509847,1.50136806e-05,6.06859576,-7.95702579e-01,-1,-0.9992440285585654
9.39565948e+04,4.49999724e-01,-1.12510018e-12,6.27146739e-01,3.68372900,4.68792514e-01,-3.84509847,1.48479199e-05,6.07154691,-7.86843917e-01,-1,-0.9991996833455427
9.93462084e+04,4.49999718e-01,-1.10235755e-12,6.21085251e-01,3.68370750,4.65804772e-01,-3.84509847,1.46904232e-05,6.07442532,-7.78202643e-01,-1,-0.9991527923795386
1.05039743e+05,4.49999712e-01,-1.08013175e-12,6.14990482e-01,3.68368433,4.62803734e-01,-3.84509847,1.45360908e-05,6.07731693,-7.69521299e-01,-1,-0.9991032572259664
1.11068435e+05,4.49999705e-01,-1.05762125e-12,6.08653105e-01,3.68365894,4.59685829e-01,-3.84509847,1.43787379e-05,6.08032194,-7.60498994e-01,-1,-0.999050806120451
1.17427293e+05,4.49999699e-01,-1.03415644e-12,6.01900351e-01,3.68362956,4.56368209e-01,-3.84509847,1.42126170e-05,6.08352009,-7.50896776e-01,-1,-0.9989954824894023
1.24150131e+05,4.49999692e-01,-1.00897725e-12,5.94495981e-01,3.68359477,4.52735609e-01,-3.84509847,1.40312177e-05,6.08702274,-7.40380544e-01,-1,-0.9989369921426902
1.31229764e+05,4.49999685e-01,-9.81452841e-13,5.86271253e-01,3.68355322,4.48706343e-01,-3.84509847,1.38279975e-05,6.09090884,-7.28711910e-01,-1,-0.9988753975915847
1.38705841e+05,4.49999678e-01,-9.50923585e-13,5.76897326e-01,3.68350139,4.44123041e-01,-3.84509847,1.35974564e-05,6.09533055,-7.15434530e-01,-1,-0.9988103538800188
1.46578284e+05,4.49999671e-01,-9.16647847e-13,5.66108803e-01,3.68343612,4.38859320e-01,-3.84509847,1.33303966e-05,6.10041011,-7.00179379e-01,-1,-0.9987418616866116
1.54851965e+05,4.49999663e-01,-8.78116083e-13,5.53574855e-01,3.68335554,4.32753491e-01,-3.84509847,1.30215270e-05,6.10630381,-6.82478890e-01,-1,-0.998669878623763
1.63525412e+05,4.49999656e-01,-8.35018195e-13,5.38925110e-01,3.68324889,4.25641937e-01,-3.84509847,1.26637295e-05,6.11317001,-6.61854915e-01,-1,-0.9985944174982355
1.72592329e+05,4.49999649e-01,-7.87390399e-13,5.21848744e-01,3.68311206,4.17377395e-01,-3.84509847,1.22539453e-05,6.12115219,-6.37876228e-01,-1,-0.9985155330867801
1.82038525e+05,4.49999642e-01,-7.36138842e-13,5.02283209e-01,3.68293449,4.07949776e-01,-3.84509847,1.17937055e-05,6.13026155,-6.10506492e-01,-1,-0.9984333488545927
1.91879314e+05,4.49999635e-01,-6.83225960e-13,4.80555272e-01,3.68271494,3.97524913e-01,-3.84509847,1.12967260e-05,6.14034044,-5.80220410e-01,-1,-0.9983477315661008
2.02161798e+05,4.49999628e-01,-6.31330712e-13,4.57509911e-01,3.68246009,3.86511935e-01,-3.84509847,1.07866464e-05,6.15099439,-5.48207414e-01,-1,-0.9982582714223012
2.12968394e+05,4.49999621e-01,-5.82834051e-13,4.34060706e-01,3.68216843,3.75370639e-01,-3.84509847,1.02864620e-05,6.16177784,-5.15800706e-01,-1,-0.9981642513749911
2.24370183e+05,4.49999615e-01,-5.38661225e-13,4.10842499e-01,3.68185821,3.64381983e-01,-3.84509847,9.81158832e-06,6.17241975,-4.83805274e-01,-1,-0.9980650530019606
2.36411464e+05,4.49999609e-01,-4.98560282e-13,3.87967528e-01,3.68151821,3.53624503e-01,-3.84509847,9.35950578e-06,6.18297648,-4.52229340e-01,-1,-0.9979602908909968
2.49131942e+05,4.49999603e-01,-4.62096415e-13,3.65488348e-01,3.68116202,3.43097294e-01,-3.84509847,8.93138372e-06,6.19323124,-4.21467728e-01,-1,-0.9978496195988187
2.62566685e+05,4.49999597e-01,-4.28833359e-13,3.43343737e-01,3.68078105,3.32786917e-01,-3.84509847,8.52336655e-06,6.20322949,-3.91405916e-01,-1,-0.9977327340251878
2.76759012e+05,4.49999591e-01,-3.98442627e-13,3.21523690e-01,3.68038097,3.22677065e-01,-3.84509847,8.13525791e-06,6.21303857,-3.61906450e-01,-1,-0.9976092572841326
2.91742762e+05,4.49999585e-01,-3.70604958e-13,2.99993878e-01,3.67996073,3.12752639e-01,-3.84509847,7.76548739e-06,6.22267256,-3.32931943e-01,-1,-0.9974788949680174
3.07566815e+05,4.49999580e-01,-3.45110855e-13,2.78757091e-01,3.67952788,3.02999945e-01,-3.84509847,7.41529800e-06,6.23214344,-3.04450244e-01,-1,-0.997341221808801
3.24279164e+05,4.49999574e-01,-3.21663778e-13,2.57772603e-01,3.67907757,2.93408316e-01,-3.84509847,7.08123348e-06,6.24146147,-2.76422544e-01,-1,-0.9971958202555606
3.41920566e+05,4.49999569e-01,-3.00068693e-13,2.37021750e-01,3.67861154,2.83964937e-01,-3.84509847,6.76303144e-06,6.25064031,-2.48809977e-01,-1,-0.9970423357123561
3.60541716e+05,4.49999564e-01,-2.80135342e-13,2.16466322e-01,3.67812460,2.74661123e-01,-3.84509847,6.45857337e-06,6.25968677,-2.21594274e-01,-1,-0.9968803271201994
3.80198969e+05,4.49999558e-01,-2.61719408e-13,1.96103022e-01,3.67762010,2.65488454e-01,-3.84509847,6.16785008e-06,6.26860735,-1.94752253e-01,-1,-0.9967093041767078
4.00954448e+05,4.49999553e-01,-2.44696089e-13,1.75933906e-01,3.67710277,2.56438562e-01,-3.84509847,5.89109722e-06,6.27741040,-1.68257844e-01,-1,-0.9965287263964778
4.22865305e+05,4.49999548e-01,-2.28934089e-13,1.55946784e-01,3.67657373,2.47503077e-01,-3.84509847,5.62739857e-06,6.28610530,-1.42085136e-01,-1,-0.9963380965430306
4.45995013e+05,4.49999543e-01,-2.14325634e-13,1.36125691e-01,3.67603269,2.38674608e-01,-3.84509847,5.37617909e-06,6.29469895,-1.16214201e-01,-1,-0.9961368623856303
4.70410183e+05,4.49999538e-01,-2.00760752e-13,1.16456414e-01,3.67547916,2.29947030e-01,-3.84509847,5.13636077e-06,6.30319726,-9.06288911e-02,-1,-0.9959244443921675
4.96185009e+05,4.49999533e-01,-1.88159542e-13,9.69297602e-02,3.67491363,2.21314766e-01,-3.84509847,4.90754295e-06,6.31160456,-6.53180297e-02,-1,-0.9957001970565655
5.23393768e+05,4.49999528e-01,-1.76435826e-13,7.75351416e-02,3.67433622,2.12772291e-01,-3.84509847,4.68901399e-06,6.31992690,-4.02600150e-02,-1,-0.9954634741506267
5.52119122e+05,4.49999523e-01,-1.65547260e-13,5.83011091e-02,3.67375742,2.04312868e-01,-3.84509847,4.48182847e-06,6.32817093,-1.54319670e-02,-1,-0.9952135564945881
5.82431373e+05,4.49999518e-01,-1.55382621e-13,3.91443407e-02,3.67315728,1.95934767e-01,-3.84509847,4.28273732e-06,6.33633760,9.16817682e-03,-1,-0.9949498324437313
6.14425263e+05,4.49999514e-01,-1.45904646e-13,2.01175206e-02,3.67255238,1.87631144e-01,-3.84509847,4.09585138e-06,6.34443251,3.35541155e-02,-1,-0.9946714777193175
6.48188204e+05,4.49999509e-01,-1.37056735e-13,1.19616511e-03,3.67193816,1.79398918e-01,-3.84509847,3.91750703e-06,6.35245876,5.77380739e-02,-1,-0.9943777318154134
6.83846723e+05,4.49999504e-01,-1.28808241e-13,-1.76156262e-02,3.67131710,1.71235134e-01,-3.84509847,3.74757222e-06,6.36041947,8.17305190e-02,-1,-0.9940674939159505
7.21483948e+05,4.49999499e-01,-1.21097371e-13,-3.63231927e-02,3.67069038,1.63134804e-01,-3.84509847,3.58524498e-06,6.36832059,1.05545267e-01,-1,-0.9937400407868507
7.61199201e+05,4.49999495e-01,-1.13886800e-13,-5.49326338e-02,3.67005850,1.55093832e-01,-3.84509847,3.43020544e-06,6.37616628,1.29197054e-01,-1,-0.993394508302247
8.03128638e+05,4.49999490e-01,-1.07153473e-13,-7.34228910e-02,3.66942895,1.47107801e-01,-3.84509847,3.28293366e-06,6.38396113,1.52696082e-01,-1,-0.9930297118713984
8.47396549e+05,4.49999486e-01,-1.00840878e-13,-9.18666442e-02,3.66878297,1.39177892e-01,-3.84509847,3.13641008e-06,6.39170206,1.76033881e-01,-1,-0.9926445701406873
8.94115366e+05,4.49999481e-01,-9.49376179e-14,-1.10159872e-01,3.66815061,1.31295989e-01,-3.84509847,2.96831558e-06,6.39939591,1.99232562e-01,-1,-0.9922381049240171
9.43451911e+05,4.49999477e-01,-8.94170941e-14,-1.28333716e-01,3.66752523,1.23459834e-01,-3.84509847,2.81031671e-06,6.40704471,2.22304294e-01,-1,-0.9918088648288925
9.95545155e+05,4.49999472e-01,-8.42426191e-14,-1.46397200e-01,3.66690633,1.15665892e-01,-3.84509847,2.66161337e-06,6.41465363,2.45260434e-01,-1,-0.9913556407733795
1.05050862e+06,4.49999468e-01,-7.93963859e-14,-1.64384016e-01,3.66628668,1.07911778e-01,-3.84509847,2.52110457e-06,6.42222542,2.68108184e-01,-1,-0.9908774450881126
1.10856677e+06,4.49999463e-01,-7.48484823e-14,-1.82292061e-01,3.66566739,1.00196342e-01,-3.84509847,2.38819951e-06,6.42976131,2.90849426e-01,-1,-0.9903723248809972
1.16982125e+06,4.49999459e-01,-7.05765307e-14,-2.00125899e-01,3.66504883,9.25165400e-02,-3.84509847,2.26229088e-06,6.43726350,3.13489440e-01,-1,-0.9898393958154941
1.23450808e+06,4.49999454e-01,-6.65644519e-14,-2.17886505e-01,3.66443128,8.48713484e-02,-3.84509847,2.14314848e-06,6.44473206,3.36032660e-01,-1,-0.9892766044594616
1.30278389e+06,4.49999450e-01,-6.27960945e-14,-2.35578206e-01,3.66381481,7.72584373e-02,-3.84509847,2.03026578e-06,6.45216926,3.58486806e-01,-1,-0.9886825880933156
1.37485121e+06,4.49999446e-01,-5.92520980e-14,-2.53204395e-01,3.66319961,6.96757309e-02,-3.84509847,1.92322671e-06,6.45957801,3.80859071e-01,-1,-0.9880555846561643
1.45095068e+06,4.49999441e-01,-5.59240516e-14,-2.70764250e-01,3.66258676,6.21215106e-02,-3.84509847,1.82193920e-06,6.46696008,4.03156557e-01,-1,-0.9873935005207282
1.53126469e+06,4.49999437e-01,-5.27914199e-14,-2.88259182e-01,3.66197696,5.45936386e-02,-3.84509847,1.72588744e-06,6.47431685,4.25381907e-01,-1,-0.9866947488490773
