star_age,star_mass,star_mdot,log_L,log_Teff,log_R,log_surf_z,v_wind_Km_per_s,log_center_T,log_center_Rho,phase,x
1.03167616e+03,8.49999943e-01,-5.40564716e-11,1.93747734,3.68765883,1.11609816,-3.84509847,6.40612692e-05,5.71339396,-2.40261031,-1,-1.0
1.08616085e+03,8.49999940e-01,-5.31794365e-11,1.93298247,3.68787228,1.11342382,-3.84509847,6.40042408e-05,5.71592330,-2.39505186,-1,-0.9999976828981312
1.14351398e+03,8.49999937e-01,-5.22823101e-11,1.92832834,3.68809262,1.11065608,-3.84509847,6.39386163e-05,5.71854158,-2.38722728,-1,-0.9999952438084584
1.20386040e+03,8.49999934e-01,-5.13681994e-11,1.92351367,3.68832000,1.10779399,-3.84509847,6.38669065e-05,5.72124968,-2.37913484,-1,-0.9999926774214136
1.26732138e+03,8.49999931e-01,-5.04391411e-11,1.91853270,3.68855317,1.10483717,-3.84509847,6.37882279e-05,5.72404800,-2.37077365,-1,-0.9999899785796774
1.33401275e+03,8.49999928e-01,-4.94932198e-11,1.91339119,3.68879363,1.10178550,-3.84509847,6.37010519e-05,5.72693686,-2.36214166,-1,-0.9999871423572807
1.40405478e+03,8.49999924e-01,-4.85358149e-11,1.90813113,3.68905206,1.09863859,-3.84509847,6.36282640e-05,5.72991655,-2.35323754,-1,-0.9999841636394315
1.47816834e+03,8.49999921e-01,-4.75734475e-11,1.90265387,3.68931156,1.09538096,-3.84509847,6.35488552e-05,5.73300183,-2.34401718,-1,-0.9999810117692753
1.55599240e+03,8.49999917e-01,-4.65996790e-11,1.89700223,3.68957578,1.09202671,-3.84509847,6.34594542e-05,5.73617947,-2.33452131,-1,-0.9999777021005435
1.63759470e+03,8.49999913e-01,-4.56174411e-11,1.89118009,3.68984470,1.08857779,-3.84509847,6.33625553e-05,5.73944777,-2.32475264,-1,-0.9999742317524176
1.72398617e+03,8.49999909e-01,-4.46240541e-11,1.88516447,3.69012257,1.08501425,-3.84509847,6.32578877e-05,5.74282558,-2.31465498,-1,-0.9999705577324941
1.81445025e+03,8.49999905e-01,-4.36180059e-11,1.87898835,3.69040700,1.08135733,-3.84509847,6.31389831e-05,5.74629290,-2.30428811,-1,-0.9999667105143338
1.90996673e+03,8.49999901e-01,-4.26114523e-11,1.87262387,3.69069982,1.07758944,-3.84509847,6.30228214e-05,5.74986669,-2.29360296,-1,-0.9999626484298417
2.01007531e+03,8.49999897e-01,-4.16074793e-11,1.86609408,3.69099922,1.07372575,-3.84509847,6.29107516e-05,5.75353208,-2.28264301,-1,-0.9999583910544615
2.11586729e+03,8.49999893e-01,-4.05969981e-11,1.85936970,3.69130650,1.06974900,-3.84509847,6.27877552e-05,5.75730589,-2.27135858,-1,-0.9999538919778482
2.22683201e+03,8.49999888e-01,-3.95844099e-11,1.85247689,3.69162060,1.06567439,-3.84509847,6.26579462e-05,5.76117369,-2.25979105,-1,-0.9999491729171345
2.34363411e+03,8.49999884e-01,-3.85714905e-11,1.84540235,3.69194173,1.06149486,-3.84509847,6.25214526e-05,5.76514196,-2.24792444,-1,-0.9999442056067912
2.46669099e+03,8.49999879e-01,-3.75599827e-11,1.83814414,3.69227015,1.05720891,-3.84509847,6.23792594e-05,5.76921224,-2.23575003,-1,-0.9999389722958075
2.59599184e+03,8.49999874e-01,-3.65514372e-11,1.83073687,3.69261168,1.05282222,-3.84509847,6.22414326e-05,5.77337992,-2.22328530,-1,-0.9999334734439067
2.73193651e+03,8.49999870e-01,-3.55469015e-11,1.82319159,3.69297006,1.04833283,-3.84509847,6.21127310e-05,5.77764658,-2.21052301,-1,-0.9999276920464369
2.87491335e+03,8.49999865e-01,-3.45513572e-11,1.81540114,3.69331795,1.04374182,-3.84509847,6.19582432e-05,5.78201117,-2.19746469,-1,-0.9999216115878135
3.02550984e+03,8.49999860e-01,-3.35605835e-11,1.80742820,3.69367202,1.03904721,-3.84509847,6.17928831e-05,5.78647636,-2.18410865,-1,-0.9999152070839351
3.18388691e+03,8.49999854e-01,-3.25720944e-11,1.79928355,3.69403320,1.03425253,-3.84509847,6.16109999e-05,5.79103800,-2.17046157,-1,-0.9999084716908391
3.35044317e+03,8.49999849e-01,-3.15984761e-11,1.79096425,3.69440004,1.02935920,-3.84509847,6.14331126e-05,5.79569529,-2.15652660,-1,-0.9999013884566075
3.52559907e+03,8.49999844e-01,-3.06331318e-11,1.78247269,3.69477246,1.02436858,-3.84509847,6.12437835e-05,5.80044681,-2.14230850,-1,-0.9998939395005205
3.70978816e+03,8.49999838e-01,-2.96783996e-11,1.77380337,3.69514836,1.01928213,-3.84509847,6.10428191e-05,5.80529123,-2.12781161,-1,-0.9998861063847471
3.90345141e+03,8.49999833e-01,-2.87263101e-11,1.76497331,3.69553142,1.01410096,-3.84509847,6.08158781e-05,5.81022808,-2.11303260,-1,-0.9998778703559014
4.10737082e+03,8.49999827e-01,-2.78043991e-11,1.75596835,3.69591812,1.00882508,-3.84509847,6.06136705e-05,5.81525696,-2.09797930,-1,-0.9998691981574178
4.32180618e+03,8.49999821e-01,-2.68912562e-11,1.74681045,3.69630992,1.00346254,-3.84509847,6.03911942e-05,5.82030112,-2.08278613,-1,-0.9998600787410571
4.54726033e+03,8.49999815e-01,-2.59930489e-11,1.73755676,3.69672529,9.98004950e-01,-3.84509847,6.01897741e-05,5.82550731,-2.06719987,-1,-0.9998504907222524
4.78420767e+03,8.49999809e-01,-2.51119632e-11,1.72808880,3.69712890,9.92463748e-01,-3.84509847,5.99589677e-05,5.83075972,-2.05143223,-1,-0.9998404139259208
5.03336664e+03,8.49999803e-01,-2.42431037e-11,1.71845104,3.69753433,9.86834022e-01,-3.84509847,5.97068996e-05,5.83612850,-2.03535428,-1,-0.9998298177985497
5.29569341e+03,8.49999797e-01,-2.33913210e-11,1.70866904,3.69794763,9.81116405e-01,-3.84509847,5.94503202e-05,5.84158991,-2.01900483,-1,-0.9998186616765455
5.57123634e+03,8.49999790e-01,-2.25603029e-11,1.69871613,3.69835807,9.75319087e-01,-3.84509847,5.91842689e-05,5.84712468,-2.00243183,-1,-0.9998069435032745
5.86105410e+03,8.49999784e-01,-2.17458609e-11,1.68861246,3.69877103,9.69441324e-01,-3.84509847,5.89034048e-05,5.85274081,-1.98561783,-1,-0.9997946182560664
6.16592239e+03,8.49999778e-01,-2.09479671e-11,1.67835843,3.69918637,9.63483627e-01,-3.84509847,5.86066059e-05,5.85843816,-1.96855981,-1,-0.9997816529462795
6.48617584e+03,8.49999771e-01,-2.01710705e-11,1.66796749,3.69960399,9.57452919e-01,-3.84509847,5.83061121e-05,5.86420634,-1.95128642,-1,-0.9997680333429105
6.82334628e+03,8.49999764e-01,-1.94133847e-11,1.65743350,3.70002372,9.51346456e-01,-3.84509847,5.79941497e-05,5.87004924,-1.93377986,-1,-0.9997536943009406
7.17742122e+03,8.49999758e-01,-1.86744606e-11,1.64675783,3.70044228,9.45171504e-01,-3.84509847,5.76688686e-05,5.87596012,-1.91606928,-1,-0.9997386363515394
7.55012741e+03,8.49999751e-01,-1.79533971e-11,1.63600312,3.70087752,9.38923668e-01,-3.84509847,5.73437410e-05,5.88194296,-1.89814215,-1,-0.9997227860602124
7.94179274e+03,8.49999744e-01,-1.72572905e-11,1.62507058,3.70130168,9.32609077e-01,-3.84509847,5.70101618e-05,5.88799329,-1.88001704,-1,-0.9997061294825924
8.35337334e+03,8.49999737e-01,-1.65788363e-11,1.61400954,3.70172502,9.26231876e-01,-3.84509847,5.66583410e-05,5.89410634,-1.86170393,-1,-0.999688625956787
8.78658225e+03,8.49999730e-01,-1.59181382e-11,1.60282592,3.70215042,9.19789276e-01,-3.84509847,5.62893650e-05,5.90028550,-1.84319326,-1,-0.9996702026313549
9.24169445e+03,8.49999723e-01,-1.52787085e-11,1.59152552,3.70257637,9.13287184e-01,-3.84509847,5.59173665e-05,5.90652438,-1.82450281,-1,-0.9996508478120628
9.71996059e+03,8.49999716e-01,-1.46579266e-11,1.58011266,3.70300325,9.06726972e-01,-3.84509847,5.55338129e-05,5.91282157,-1.80563595,-1,-0.9996305083117963
1.02234107e+04,8.49999709e-01,-1.40597098e-11,1.56858516,3.70342972,9.00110303e-01,-3.84509847,5.51492338e-05,5.91917534,-1.78659748,-1,-0.9996090977982975
1.07524967e+04,8.49999702e-01,-1.34747381e-11,1.55699194,3.70386746,8.93438193e-01,-3.84509847,5.47469254e-05,5.92558520,-1.76738599,-1,-0.9995865970525036
1.13086051e+04,8.49999694e-01,-1.29172079e-11,1.54524727,3.70429280,8.86715183e-01,-3.84509847,5.43543732e-05,5.93204721,-1.74801886,-1,-0.9995629471095032
1.18931199e+04,8.49999687e-01,-1.23765979e-11,1.53340342,3.70471707,8.79944726e-01,-3.84509847,5.39450648e-05,5.93855678,-1.72850902,-1,-0.9995380891111294
1.25075035e+04,8.49999680e-01,-1.18541259e-11,1.52146197,3.70514015,8.73127847e-01,-3.84509847,5.35253056e-05,5.94511323,-1.70885703,-1,-0.9995119608650531
1.31538441e+04,8.49999672e-01,-1.13495026e-11,1.50942683,3.70556205,8.66266470e-01,-3.84509847,5.30945498e-05,5.95171533,-1.68906457,-1,-0.9994844735651871
1.38333375e+04,8.49999665e-01,-1.08630488e-11,1.49730432,3.70598275,8.59363808e-01,-3.84509847,5.26559526e-05,5.95836067,-1.66914341,-1,-0.9994555763570544
1.45475930e+04,8.49999657e-01,-1.03942318e-11,1.48509437,3.70640218,8.52419981e-01,-3.84509847,5.22109846e-05,5.96504927,-1.64909138,-1,-0.9994252008010249
1.52984381e+04,8.49999650e-01,-9.94175773e-12,1.47281574,3.70682321,8.45438595e-01,-3.84509847,5.17576902e-05,5.97177726,-1.62892323,-1,-0.9993932691779509
1.60877834e+04,8.49999642e-01,-9.50898464e-12,1.46045415,3.70724073,8.38422755e-01,-3.84509847,5.13098898e-05,5.97854093,-1.60864715,-1,-0.9993597002346432
1.69175709e+04,8.49999634e-01,-9.09188163e-12,1.44801081,3.70765288,8.31376794e-01,-3.84509847,5.08466744e-05,5.98533589,-1.58827437,-1,-0.9993244113825464
1.77899427e+04,8.49999627e-01,-8.69029088e-12,1.43550563,3.70806291,8.24304149e-01,-3.84509847,5.03730338e-05,5.99215863,-1.56781404,-1,-0.999287311523337
1.87070910e+04,8.49999619e-01,-8.30568583e-12,1.42294275,3.70847093,8.17206671e-01,-3.84509847,4.99009580e-05,5.99900847,-1.54727275,-1,-0.9992483074280601
1.96713490e+04,8.49999611e-01,-7.93717127e-12,1.41033053,3.70887597,8.10090469e-01,-3.84509847,4.94266409e-05,6.00587961,-1.52666737,-1,-0.9992072998713722
2.06851895e+04,8.49999603e-01,-7.58196129e-12,1.39769499,3.70928217,8.02960318e-01,-3.84509847,4.89400433e-05,6.01276727,-1.50601933,-1,-0.9991641836910801
2.17511437e+04,8.49999596e-01,-7.24465393e-12,1.38500980,3.70967975,7.95822558e-01,-3.84509847,4.84626776e-05,6.01966507,-1.48533745,-1,-0.9991188512413797
2.28719592e+04,8.49999588e-01,-6.92161820e-12,1.37230965,3.71007315,7.88685676e-01,-3.84509847,4.79792201e-05,6.02656477,-1.46464708,-1,-0.9990711856734995
2.40506158e+04,8.49999580e-01,-6.61272109e-12,1.35963158,3.71046688,7.81559192e-01,-3.84509847,4.74966402e-05,6.03345761,-1.44397396,-1,-0.9990210602637647
2.52901378e+04,8.49999572e-01,-6.31807941e-12,1.34697645,3.71085512,7.74455129e-01,-3.84509847,4.70114473e-05,6.04033095,-1.42335636,-1,-0.9989683463960229
2.65937648e+04,8.49999564e-01,-6.03833503e-12,1.33434550,3.71123070,7.67388500e-01,-3.84509847,4.65246331e-05,6.04717029,-1.40283931,-1,-0.9989129062979347
2.79651322e+04,8.49999556e-01,-5.77206803e-12,1.32180754,3.71160160,7.60377729e-01,-3.84509847,4.60362177e-05,6.05395820,-1.38247654,-1,-0.9988545853647453
2.94079509e+04,8.49999548e-01,-5.52021503e-12,1.30937795,3.71196040,7.53445336e-01,-3.84509847,4.55486464e-05,6.06067340,-1.36233416,-1,-0.9987932257808676
3.09263205e+04,8.49999540e-01,-5.28264739e-12,1.29711705,3.71230857,7.46618544e-01,-3.84509847,4.50654063e-05,6.06728923,-1.34249233,-1,-0.9987286532002458
3.25245573e+04,8.49999531e-01,-5.05929337e-12,1.28508394,3.71264501,7.39929104e-01,-3.84509847,4.45872463e-05,6.07377416,-1.32304203,-1,-0.9986606840610978
3.42071953e+04,8.49999523e-01,-4.85050318e-12,1.27334574,3.71296824,7.33413544e-01,-3.84509847,4.41183058e-05,6.08009189,-1.30409128,-1,-0.9985891255433875
3.59788096e+04,8.49999515e-01,-4.65643074e-12,1.26197549,3.71327688,7.27111131e-01,-3.84509847,4.36626116e-05,6.08620416,-1.28575152,-1,-0.998513783079196
3.78469440e+04,8.49999506e-01,-4.47742641e-12,1.25107919,3.71357256,7.21071637e-01,-3.84509847,4.32255783e-05,6.09206330,-1.26817320,-1,-0.9984343358489852
3.98155949e+04,8.49999498e-01,-4.31317736e-12,1.24070100,3.71384696,7.15333740e-01,-3.84509847,4.28022994e-05,6.09763167,-1.25146460,-1,-0.9983506138955449
4.18888075e+04,8.49999489e-01,-4.16451742e-12,1.23090992,3.71410121,7.09929683e-01,-3.84509847,4.24091425e-05,6.10287807,-1.23572248,-1,-0.9982624451863191
4.40770107e+04,8.49999480e-01,-4.03037383e-12,1.22178911,3.71433482,7.04902060e-01,-3.84509847,4.20380038e-05,6.10776067,-1.22107409,-1,-0.9981693862054565
4.63837305e+04,8.49999471e-01,-3.90986805e-12,1.21334101,3.71454852,7.00250627e-01,-3.84509847,4.16924091e-05,6.11227950,-1.20751866,-1,-0.9980712870007192
4.88147377e+04,8.49999462e-01,-3.80182566e-12,1.20554977,3.71474346,6.95965120e-01,-3.84509847,4.13723885e-05,6.11644390,-1.19502588,-1,-0.9979679021539638
5.13770083e+04,8.49999452e-01,-3.70516257e-12,1.19836481,3.71492129,6.92016981e-01,-3.84509847,4.10805035e-05,6.12028125,-1.18351545,-1,-0.9978589349928105
5.40754345e+04,8.49999442e-01,-3.61782090e-12,1.19168633,3.71508482,6.88350685e-01,-3.84509847,4.08122165e-05,6.12384529,-1.17282353,-1,-0.9977441774638457
5.69160906e+04,8.49999432e-01,-3.53784652e-12,1.18540605,3.71523984,6.84900496e-01,-3.84509847,4.05662535e-05,6.12719981,-1.16275941,-1,-0.9976233712418059
5.99162067e+04,8.49999422e-01,-3.46349782e-12,1.17936532,3.71538416,6.81591502e-01,-3.84509847,4.03351849e-05,6.13041751,-1.15310546,-1,-0.9974957835722807
6.30616438e+04,8.49999411e-01,-3.39149121e-12,1.17340335,3.71552555,6.78327731e-01,-3.84509847,4.01059274e-05,6.13359164,-1.14358397,-1,-0.9973620157526862
6.63867746e+04,8.49999400e-01,-3.32088593e-12,1.16735358,3.71566838,6.75017172e-01,-3.84509847,3.98834710e-05,6.13681188,-1.13392234,-1,-0.9972206059953643
6.98695436e+04,8.49999389e-01,-3.24971835e-12,1.16106973,3.71581548,6.71581064e-01,-3.84509847,3.96613646e-05,6.14015464,-1.12389358,-1,-0.9970724922672974
7.35469215e+04,8.49999377e-01,-3.17470352e-12,1.15432367,3.71597226,6.67894461e-01,-3.84509847,3.94172302e-05,6.14374169,-1.11313292,-1,-0.9969161022941813
7.74009652e+04,8.49999365e-01,-3.09455652e-12,1.14698260,3.71613949,6.63889467e-01,-3.84509847,3.91444286e-05,6.14763890,-1.10143992,-1,-0.9967521991525891
8.14488550e+04,8.49999353e-01,-3.00775810e-12,1.13882611,3.71632293,6.59444356e-01,-3.84509847,3.88394713e-05,6.15196562,-1.08845703,-1,-0.9965800522059836
8.57015850e+04,8.49999340e-01,-2.91173788e-12,1.12959097,3.71652746,6.54417711e-01,-3.84509847,3.84831501e-05,6.15685949,-1.07377090,-1,-0.9963991939019265
9.01528669e+04,8.49999328e-01,-2.80528770e-12,1.11908913,3.71675629,6.48709138e-01,-3.84509847,3.80652655e-05,6.16241865,-1.05708916,-1,-0.9962098916665828
9.48154678e+04,8.49999315e-01,-2.68712502e-12,1.10697402,3.71701472,6.42134721e-01,-3.84509847,3.75781079e-05,6.16882289,-1.03787074,-1,-0.9960116025461194
9.96764125e+04,8.49999302e-01,-2.55739460e-12,1.09310333,3.71730324,6.34622344e-01,-3.84509847,3.70133405e-05,6.17614202,-1.01590528,-1,-0.995804878344358
1.04738926e+05,8.49999290e-01,-2.41718099e-12,1.07732119,3.71762364,6.26090467e-01,-3.84509847,3.63691328e-05,6.18445659,-9.90949374e-01,-1,-0.9955895819098617
1.10005488e+05,8.49999278e-01,-2.27045466e-12,1.05975932,3.71797167,6.16613474e-01,-3.84509847,3.56606606e-05,6.19369661,-9.63216320e-01,-1,-0.9953656077869969
1.15490128e+05,8.49999266e-01,-2.12233719e-12,1.04085230,3.71833088,6.06441546e-01,-3.84509847,3.48961546e-05,6.20361928,-9.33436738e-01,-1,-0.9951323593351171
1.21222238e+05,8.49999254e-01,-1.97965362e-12,1.02127964,3.71868638,5.95944220e-01,-3.84509847,3.41143697e-05,6.21386281,-9.02690297e-01,-1,-0.9948885865836685
1.27239222e+05,8.49999243e-01,-1.84669960e-12,1.00165048,3.71903019,5.85442015e-01,-3.84509847,3.33431606e-05,6.22411391,-8.71915412e-01,-1,-0.9946326988311477
1.33562133e+05,8.49999231e-01,-1.72400094e-12,9.82223782e-01,3.71935216,5.75084729e-01,-3.84509847,3.25826829e-05,6.23422862,-8.41550723e-01,-1,-0.9943638007444685
1.40214582e+05,8.49999220e-01,-1.61177889e-12,9.63101056e-01,3.71966471,5.64898266e-01,-3.84509847,3.18575991e-05,6.24426686,-8.11520365e-01,-1,-0.994080888205002
1.47208552e+05,8.49999210e-01,-1.50803535e-12,9.44217983e-01,3.71995330,5.54879535e-01,-3.84509847,3.11381947e-05,6.25405833,-7.82127057e-01,-1,-0.9937834516047886
1.54565318e+05,8.49999199e-01,-1.41192146e-12,9.25570507e-01,3.72022221,5.45017981e-01,-3.84509847,3.04244264e-05,6.26370015,-7.53179849e-01,-1,-0.9934705861696203
1.62301776e+05,8.49999188e-01,-1.32367227e-12,9.07153132e-01,3.72047580,5.35302112e-01,-3.84509847,2.97402864e-05,6.27320477,-7.24644549e-01,-1,-0.9931415733535496
1.70435380e+05,8.49999178e-01,-1.24163074e-12,8.88937578e-01,3.72071209,5.25721758e-01,-3.84509847,2.90624401e-05,6.28258048,-6.96498828e-01,-1,-0.9927956708802417
1.78986983e+05,8.49999168e-01,-1.16550177e-12,8.70913142e-01,3.72093239,5.16268945e-01,-3.84509847,2.83973009e-05,6.29183294,-6.68719810e-01,-1,-0.9924319919221257
1.87977962e+05,8.49999158e-01,-1.09479714e-12,8.53063423e-01,3.72113613,5.06936597e-01,-3.84509847,2.77442820e-05,6.30096854,-6.41286219e-01,-1,-0.9920496273671806
1.97430994e+05,8.49999148e-01,-1.02900207e-12,8.35388663e-01,3.72132790,4.97715684e-01,-3.84509847,2.71040524e-05,6.30999825,-6.14167201e-01,-1,-0.9916476128175346
2.07369946e+05,8.49999138e-01,-9.67821129e-13,8.17872606e-01,3.72150685,4.88599765e-01,-3.84509847,2.64790776e-05,6.31892804,-5.87348079e-01,-1,-0.9912249332674988
2.17817997e+05,8.49999128e-01,-9.10686608e-13,8.00478231e-01,3.72166658,4.79583115e-01,-3.84509847,2.58601247e-05,6.32776353,-5.60816987e-01,-1,-0.9907806029703577
2.28801826e+05,8.49999119e-01,-8.57462638e-13,7.83213957e-01,3.72181180,4.70660537e-01,-3.84509847,2.52544674e-05,6.33650969,-5.34552912e-01,-1,-0.9903134873328752
2.40348289e+05,8.49999109e-01,-8.07673029e-13,7.66070616e-01,3.72194250,4.61827452e-01,-3.84509847,2.46572031e-05,6.34517059,-5.08539845e-01,-1,-0.9898224442344333
2.52485959e+05,8.49999100e-01,-7.61181539e-13,7.49048467e-01,3.72206118,4.53079016e-01,-3.84509847,2.40731911e-05,6.35375138,-4.82766638e-01,-1,-0.9893062585345646
2.65242902e+05,8.49999090e-01,-7.17618441e-13,7.32119253e-01,3.72216268,4.44411417e-01,-3.84509847,2.34957571e-05,6.36225374,-4.57226683e-01,-1,-0.9887637366542826
2.78648783e+05,8.49999081e-01,-6.76643340e-13,7.15257396e-01,3.72224237,4.35821103e-01,-3.84509847,2.29180164e-05,6.37068093,-4.31910391e-01,-1,-0.9881936170130052
2.92743329e+05,8.49999072e-01,-6.38358669e-13,6.98495594e-01,3.72231133,4.27302297e-01,-3.84509847,2.23556000e-05,6.37904075,-4.06796546e-01,-1,-0.9875942101176668
3.07563011e+05,8.49999063e-01,-6.02630082e-13,6.81825982e-01,3.72236885,4.18852437e-01,-3.84509847,2.18098362e-05,6.38733593,-3.81877914e-01,-1,-0.9869639649449934
3.23139048e+05,8.49999054e-01,-5.69006356e-13,6.65264276e-01,3.72242108,4.10467125e-01,-3.84509847,2.12740246e-05,6.39557076,-3.57143829e-01,-1,-0.9863015538265475
3.39504211e+05,8.49999045e-01,-5.37404341e-13,6.48762265e-01,3.72245706,4.02144171e-01,-3.84509847,2.07454338e-05,6.40374628,-3.32586147e-01,-1,-0.9856055830910915
3.56715164e+05,8.49999036e-01,-5.07696229e-13,6.32320240e-01,3.72247769,3.93881900e-01,-3.84509847,2.02238187e-05,6.41186442,-3.08197003e-01,-1,-0.984873642955982
3.74800541e+05,8.49999027e-01,-4.79749061e-13,6.15926755e-01,3.72248185,3.85676823e-01,-3.84509847,1.97095349e-05,6.41992674,-2.83971812e-01,-1,-0.984104515686569
3.93800588e+05,8.49999018e-01,-4.53440160e-13,5.99591521e-01,3.72247357,3.77525778e-01,-3.84509847,1.92042287e-05,6.42793687,-2.59901545e-01,-1,-0.9832964897179741
4.13787187e+05,8.49999009e-01,-4.28685797e-13,5.83306567e-01,3.72245123,3.69427981e-01,-3.84509847,1.87067152e-05,6.43589607,-2.35984471e-01,-1,-0.9824465080828817
4.34781759e+05,8.49999001e-01,-4.05350659e-13,5.67067806e-01,3.72241578,3.61379491e-01,-3.84509847,1.82174409e-05,6.44380818,-2.12206912e-01,-1,-0.9815536597980572
4.56852728e+05,8.49998992e-01,-3.83429630e-13,5.50882653e-01,3.72236958,3.53379327e-01,-3.84509847,1.77402412e-05,6.45167454,-1.88564449e-01,-1,-0.9806150349565474
4.80050259e+05,8.49998983e-01,-3.62745096e-13,5.34729111e-01,3.72230786,3.45425986e-01,-3.84509847,1.72696847e-05,6.45946636,-1.65022114e-01,-1,-0.9796285001624344
5.04421120e+05,8.49998975e-01,-3.43201268e-13,5.18599637e-01,3.72222937,3.37518223e-01,-3.84509847,1.68046488e-05,6.46709181,-1.41470331e-01,-1,-0.97859206648598
5.30055419e+05,8.49998966e-01,-3.24852694e-13,5.02590920e-01,3.72216087,3.29650875e-01,-3.84509847,1.63584797e-05,6.47455871,-1.17879646e-01,-1,-0.9775019018522437
5.56970892e+05,8.49998958e-01,-3.07484569e-13,4.86534165e-01,3.72205738,3.21829465e-01,-3.84509847,1.59113999e-05,6.48187556,-9.42555044e-02,-1,-0.9763572519921137
