star_age,star_mass,star_mdot,log_L,log_Teff,log_R,log_surf_z,v_wind_Km_per_s,log_center_T,log_center_Rho,phase,x
9.65807304e+02,9.19999938e-01,-6.32369012e-11,2.00668102,3.68827346,1.14947074,-3.84509847,6.88410378e-05,5.71357080,-2.46988859,-1,-1.0
1.01647959e+03,9.19999935e-01,-6.22133932e-11,2.00217908,3.68849239,1.14678191,-3.84509847,6.87950644e-05,5.71611852,-2.46227668,-1,-0.999997526060835
1.06979403e+03,9.19999932e-01,-6.11638192e-11,1.99751946,3.68871828,1.14400032,-3.84509847,6.87364943e-05,5.71875481,-2.45440038,-1,-0.9999949231255506
1.12586621e+03,9.19999928e-01,-6.00932610e-11,1.99270046,3.68895101,1.14112536,-3.84509847,6.86699062e-05,5.72147995,-2.44625683,-1,-0.9999921855509686
1.18480785e+03,9.19999925e-01,-5.90048883e-11,1.98772111,3.68919060,1.13815651,-3.84509847,6.85966382e-05,5.72429481,-2.43784597,-1,-0.999989307882658
1.24672828e+03,9.19999921e-01,-5.79008844e-11,1.98258056,3.68943694,1.13509355,-3.84509847,6.85178911e-05,5.72719940,-2.42916521,-1,-0.9999862847828734
1.31173550e+03,9.19999918e-01,-5.67828284e-11,1.97727870,3.68969000,1.13193651,-3.84509847,6.84340865e-05,5.73019396,-2.42021463,-1,-0.9999831109788031
1.38054641e+03,9.19999914e-01,-5.56501219e-11,1.97182492,3.68996077,1.12866808,-3.84509847,6.83617322e-05,5.73329482,-2.41094682,-1,-0.9999797514697171
1.45273356e+03,9.19999910e-01,-5.45126207e-11,1.96629698,3.69026089,1.12530386,-3.84509847,6.83309399e-05,5.73648705,-2.40140410,-1,-0.9999762271247212
1.52845128e+03,9.19999906e-01,-5.33669054e-11,1.96049863,3.69054108,1.12184430,-3.84509847,6.82503819e-05,5.73977039,-2.39158857,-1,-0.9999725304090651
1.60851158e+03,9.19999902e-01,-5.22101402e-11,1.95449797,3.69082660,1.11827293,-3.84509847,6.81585903e-05,5.74316088,-2.38145052,-1,-0.9999686216785268
1.69231545e+03,9.19999897e-01,-5.10393368e-11,1.94833799,3.69111848,1.11460918,-3.84509847,6.80518652e-05,5.74663989,-2.37105130,-1,-0.9999645301781717
1.78084055e+03,9.19999893e-01,-4.98610064e-11,1.94199077,3.69141929,1.11083395,-3.84509847,6.79393710e-05,5.75022565,-2.36033088,-1,-0.9999602081763584
1.87353282e+03,9.19999888e-01,-4.86867016e-11,1.93548100,3.69172625,1.10696516,-3.84509847,6.78317058e-05,5.75390109,-2.34934001,-1,-0.9999556827235884
1.97148739e+03,9.19999884e-01,-4.75066414e-11,1.92877698,3.69204101,1.10298363,-3.84509847,6.77145470e-05,5.75768491,-2.33802467,-1,-0.9999509003530612
2.07421802e+03,9.19999879e-01,-4.63239624e-11,1.92191226,3.69236404,1.09890521,-3.84509847,6.75917802e-05,5.76156163,-2.32642992,-1,-0.9999458848041476
2.18221642e+03,9.19999874e-01,-4.51293949e-11,1.91491233,3.69270475,1.09472382,-3.84509847,6.74628715e-05,5.76553734,-2.31453831,-1,-0.9999406120704186
2.29604679e+03,9.19999869e-01,-4.39518191e-11,1.90768014,3.69304103,1.09043517,-3.84509847,6.73296780e-05,5.76961634,-2.30233728,-1,-0.9999350546063148
2.41564503e+03,9.19999864e-01,-4.27846156e-11,1.90027365,3.69338332,1.08604733,-3.84509847,6.71996831e-05,5.77379076,-2.28984965,-1,-0.9999292155413475
2.54132200e+03,9.19999859e-01,-4.16145825e-11,1.89269492,3.69373215,1.08156030,-3.84509847,6.70514758e-05,5.77806112,-2.27707289,-1,-0.9999230796986066
2.67343594e+03,9.19999853e-01,-4.04490970e-11,1.88494223,3.69408716,1.07697394,-3.84509847,6.68922684e-05,5.78242736,-2.26400836,-1,-0.99991662958798
2.81240579e+03,9.19999848e-01,-3.92897132e-11,1.87700388,3.69444653,1.07228604,-3.84509847,6.67197960e-05,5.78689232,-2.25065042,-1,-0.9999098447558399
2.95866806e+03,9.19999842e-01,-3.81404004e-11,1.86890027,3.69481501,1.06749728,-3.84509847,6.65459129e-05,5.79145514,-2.23699724,-1,-0.9999027038907502
3.11241727e+03,9.19999836e-01,-3.70016990e-11,1.86062668,3.69518964,1.06261120,-3.84509847,6.63640478e-05,5.79611219,-2.22306069,-1,-0.999895197495791
3.27406440e+03,9.19999831e-01,-3.58770916e-11,1.85226286,3.69559077,1.05762704,-3.84509847,6.62120732e-05,5.80086447,-2.20883882,-1,-0.9998873055059603
3.44396913e+03,9.19999825e-01,-3.47666453e-11,1.84366074,3.69597973,1.05254806,-3.84509847,6.60256085e-05,5.80570870,-2.19434243,-1,-0.9998790103608417
3.62256780e+03,9.19999819e-01,-3.36688915e-11,1.83489013,3.69637331,1.04737560,-3.84509847,6.58265078e-05,5.81064332,-2.17956944,-1,-0.9998702907572989
3.81053275e+03,9.19999812e-01,-3.25847097e-11,1.82595657,3.69677230,1.04211084,-3.84509847,6.56141741e-05,5.81571396,-2.16445768,-1,-0.9998611138701254
4.00814452e+03,9.19999806e-01,-3.15145687e-11,1.81685560,3.69717610,1.03675275,-3.84509847,6.53879741e-05,5.82082926,-2.14914317,-1,-0.9998514660027042
4.21584266e+03,9.19999800e-01,-3.04696237e-11,1.80759769,3.69758237,1.03131127,-3.84509847,6.51644462e-05,5.82591138,-2.13377721,-1,-0.9998413256951791
4.43406709e+03,9.19999793e-01,-2.94378558e-11,1.79818195,3.69799326,1.02578162,-3.84509847,6.49220373e-05,5.83115035,-2.11803650,-1,-0.9998306714696301
4.66337154e+03,9.19999787e-01,-2.84251136e-11,1.78860802,3.69840819,1.02016479,-3.84509847,6.46707905e-05,5.83650428,-2.10198737,-1,-0.9998194762916672
4.90487900e+03,9.19999780e-01,-2.74355616e-11,1.77898539,3.69885469,1.01446046,-3.84509847,6.44592416e-05,5.84194772,-2.08567433,-1,-0.9998076853343
5.15845410e+03,9.19999773e-01,-2.64688317e-11,1.76912646,3.69928196,1.00867645,-3.84509847,6.42085669e-05,5.84747608,-2.06911800,-1,-0.9997953052066075
5.42490270e+03,9.19999766e-01,-2.55150723e-11,1.75911250,3.69971062,1.00281217,-3.84509847,6.39255449e-05,5.85308823,-2.05231555,-1,-0.9997822965646254
5.70531988e+03,9.19999759e-01,-2.45888010e-11,1.74899659,3.70015244,9.96870562e-01,-3.84509847,6.36610776e-05,5.85877489,-2.03528513,-1,-0.9997686059439944
5.99959241e+03,9.19999752e-01,-2.36852983e-11,1.73870928,3.70058746,9.90856876e-01,-3.84509847,6.33758427e-05,5.86453414,-2.01803649,-1,-0.9997542388728672
6.30949304e+03,9.19999745e-01,-2.28009881e-11,1.72826807,3.70102278,9.84765631e-01,-3.84509847,6.30661790e-05,5.87037073,-2.00055059,-1,-0.9997391088014549
6.63465314e+03,9.19999738e-01,-2.19365270e-11,1.71769408,3.70145842,9.78607349e-01,-3.84509847,6.27380126e-05,5.87627255,-1.98286929,-1,-0.9997232337271337
6.97697869e+03,9.19999731e-01,-2.11005840e-11,1.70698993,3.70189716,9.72377787e-01,-3.84509847,6.24148284e-05,5.88224564,-1.96497339,-1,-0.9997065205955155
7.33637226e+03,9.19999723e-01,-2.02847593e-11,1.69615958,3.70233714,9.66082673e-01,-3.84509847,6.20743139e-05,5.88828384,-1.94688291,-1,-0.99968897416336
7.71433888e+03,9.19999716e-01,-1.94920468e-11,1.68524616,3.70278964,9.59720959e-01,-3.84509847,6.17395004e-05,5.89438865,-1.92859161,-1,-0.9996705209515933
8.11161228e+03,9.19999708e-01,-1.87226024e-11,1.67416713,3.70323191,9.53296908e-01,-3.84509847,6.13781142e-05,5.90055669,-1.91011341,-1,-0.9996511251378054
8.52883014e+03,9.19999701e-01,-1.79755100e-11,1.66297288,3.70367492,9.46813749e-01,-3.84509847,6.10057724e-05,5.90678405,-1.89145850,-1,-0.999630755588972
8.96768159e+03,9.19999693e-01,-1.72524487e-11,1.65166381,3.70411818,9.40272707e-01,-3.84509847,6.06249984e-05,5.91306928,-1.87262775,-1,-0.9996093298378276
9.42900069e+03,9.19999685e-01,-1.65488936e-11,1.64032120,3.70458195,9.33673848e-01,-3.84509847,6.02512235e-05,5.91941206,-1.85361894,-1,-0.9995868071636178
9.91360708e+03,9.19999677e-01,-1.58753790e-11,1.62880736,3.70502874,9.27023343e-01,-3.84509847,5.98714247e-05,5.92580697,-1.83444999,-1,-0.9995631475496068
1.04227030e+04,9.19999670e-01,-1.52199957e-11,1.61718307,3.70547304,9.20322600e-01,-3.84509847,5.94650071e-05,5.93225360,-1.81512638,-1,-0.9995382922996343
1.09581272e+04,9.19999662e-01,-1.45861515e-11,1.60545490,3.70591700,9.13570612e-01,-3.84509847,5.90463359e-05,5.93875247,-1.79564630,-1,-0.9995121516416373
1.15208954e+04,9.19999654e-01,-1.39740690e-11,1.59363368,3.70636029,9.06773416e-01,-3.84509847,5.86184431e-05,5.94529767,-1.77602922,-1,-0.999484675985797
1.21122101e+04,9.19999646e-01,-1.33831966e-11,1.58172093,3.70680306,8.99931503e-01,-3.84509847,5.81821835e-05,5.95188879,-1.75627152,-1,-0.9994558066232593
1.27335558e+04,9.19999638e-01,-1.28134198e-11,1.56971828,3.70724525,8.93045796e-01,-3.84509847,5.77393447e-05,5.95852509,-1.73637798,-1,-0.9994254710772724
1.33864907e+04,9.19999629e-01,-1.22626489e-11,1.55762395,3.70768423,8.86120677e-01,-3.84509847,5.72782223e-05,5.96520186,-1.71636447,-1,-0.9993935932728788
1.40727673e+04,9.19999621e-01,-1.17350786e-11,1.54548740,3.70813234,8.79156171e-01,-3.84509847,5.68371602e-05,5.97191922,-1.69622934,-1,-0.9993600876489419
1.47939242e+04,9.19999613e-01,-1.12272076e-11,1.53324080,3.70857011,8.72157337e-01,-3.84509847,5.63775096e-05,5.97867224,-1.67598329,-1,-0.9993248790874218
1.55518457e+04,9.19999605e-01,-1.07379188e-11,1.52092045,3.70900555,8.65126281e-01,-3.84509847,5.59065954e-05,5.98545882,-1.65563622,-1,-0.9992878755923985
1.63485609e+04,9.19999597e-01,-1.02661238e-11,1.50851875,3.70943541,8.58065705e-01,-3.84509847,5.54161993e-05,5.99227680,-1.63518903,-1,-0.9992489780984783
1.71858572e+04,9.19999588e-01,-9.81518955e-12,1.49606920,3.70986601,8.50979735e-01,-3.84509847,5.49359504e-05,5.99912216,-1.61466214,-1,-0.9992080993406254
1.80658606e+04,9.19999580e-01,-9.38209919e-12,1.48356802,3.71029459,8.43871978e-01,-3.84509847,5.44496175e-05,6.00599175,-1.59406390,-1,-0.9991651355225619
1.89907257e+04,9.19999571e-01,-8.96647862e-12,1.47101996,3.71072068,8.36745776e-01,-3.84509847,5.39574285e-05,6.01288239,-1.57340337,-1,-0.9991199814516917
1.99627912e+04,9.19999563e-01,-8.56827916e-12,1.45843912,3.71114389,8.29608929e-01,-3.84509847,5.34615213e-05,6.01978597,-1.55270592,-1,-0.9990725229472271
2.09844853e+04,9.19999554e-01,-8.18714219e-12,1.44583117,3.71156384,8.22465055e-01,-3.84509847,5.29623800e-05,6.02669900,-1.53197193,-1,-0.9990226414587818
2.20584671e+04,9.19999546e-01,-7.82258154e-12,1.43323497,3.71198574,8.15323157e-01,-3.84509847,5.24664505e-05,6.03361251,-1.51123582,-1,-0.9989702071628932
2.31873337e+04,9.19999537e-01,-7.47447478e-12,1.42061104,3.71239418,8.08194319e-01,-3.84509847,5.19579214e-05,6.04051517,-1.49053206,-1,-0.9989150932630829
2.43741709e+04,9.19999529e-01,-7.14341331e-12,1.40801641,3.71279778,8.01089789e-01,-3.84509847,5.14545271e-05,6.04739636,-1.46989335,-1,-0.9988571491033993
2.56221007e+04,9.19999520e-01,-6.82721616e-12,1.39548271,3.71319717,7.94024164e-01,-3.84509847,5.09441558e-05,6.05424258,-1.44935890,-1,-0.9987962222605221
2.69344659e+04,9.19999511e-01,-6.52816589e-12,1.38302147,3.71358606,7.87015776e-01,-3.84509847,5.04399001e-05,6.06103657,-1.42897993,-1,-0.9987321495311603
2.83148556e+04,9.19999503e-01,-6.24503552e-12,1.37070295,3.71396996,7.80088710e-01,-3.84509847,4.99414344e-05,6.06775528,-1.40882712,-1,-0.9986647556870826
2.97672132e+04,9.19999494e-01,-5.97761002e-12,1.35854255,3.71434016,7.73268107e-01,-3.84509847,4.94411315e-05,6.07437317,-1.38897724,-1,-0.9985938482023053
3.12956737e+04,9.19999485e-01,-5.72645300e-12,1.34661581,3.71469858,7.66587889e-01,-3.84509847,4.89475139e-05,6.08085645,-1.36952905,-1,-0.9985192251964861
3.29046123e+04,9.19999476e-01,-5.49174198e-12,1.33498792,3.71504339,7.60084325e-01,-3.84509847,4.84635762e-05,6.08716989,-1.35059198,-1,-0.9984406730621583
3.45984666e+04,9.19999467e-01,-5.27337329e-12,1.32372782,3.71537158,7.53797899e-01,-3.84509847,4.79887915e-05,6.09327387,-1.33227959,-1,-0.9983579751453421
3.63817318e+04,9.19999458e-01,-5.07183870e-12,1.31292662,3.71568648,7.47767495e-01,-3.84509847,4.75358021e-05,6.09913140,-1.31470635,-1,-0.998270911979891
3.82614020e+04,9.19999449e-01,-4.88779165e-12,1.30265156,3.71597985,7.42043240e-01,-3.84509847,4.71040048e-05,6.10469344,-1.29801918,-1,-0.9981791420975337
4.02419871e+04,9.19999439e-01,-4.72041068e-12,1.29297000,3.71625218,7.36657802e-01,-3.84509847,4.66941290e-05,6.10992799,-1.28231513,-1,-0.9980824453144354
4.23298543e+04,9.19999429e-01,-4.56920847e-12,1.28393484,3.71650339,7.31637788e-01,-3.84509847,4.63085044e-05,6.11480870,-1.26767063,-1,-0.9979805107690444
4.45286754e+04,9.19999420e-01,-4.43276353e-12,1.27554774,3.71673203,7.26986968e-01,-3.84509847,4.59433720e-05,6.11933176,-1.25410210,-1,-0.9978731591955227
4.68459919e+04,9.19999410e-01,-4.31097563e-12,1.26781366,3.71694268,7.22698621e-01,-3.84509847,4.56124492e-05,6.12350289,-1.24158790,-1,-0.9977600224002541
4.92890956e+04,9.19999399e-01,-4.20192696e-12,1.26069615,3.71713977,7.18745684e-01,-3.84509847,4.53146426e-05,6.12734854,-1.23005102,-1,-0.997640744380559
5.18634193e+04,9.19999389e-01,-4.10325808e-12,1.25405599,3.71731743,7.15070287e-01,-3.84509847,4.50363312e-05,6.13092491,-1.21932132,-1,-0.9975150598944726
5.45718715e+04,9.19999378e-01,-4.01289530e-12,1.24777935,3.71748366,7.11599511e-01,-3.84509847,4.47813770e-05,6.13430235,-1.20918864,-1,-0.9973828269422428
5.74207023e+04,9.19999366e-01,-3.92804320e-12,1.24172926,3.71764218,7.08257432e-01,-3.84509847,4.45390420e-05,6.13755538,-1.19943069,-1,-0.9972437403794127
6.04262104e+04,9.19999355e-01,-3.84657335e-12,1.23574687,3.71779753,7.04955533e-01,-3.84509847,4.43056311e-05,6.14076968,-1.18978628,-1,-0.9970970044654417
6.35775605e+04,9.19999343e-01,-3.76598609e-12,1.22968484,3.71795613,7.01607317e-01,-3.84509847,4.40755667e-05,6.14402949,-1.18000508,-1,-0.9969431482049423
6.69033936e+04,9.19999331e-01,-3.68387967e-12,1.22332627,3.71811856,6.98103165e-01,-3.84509847,4.38362619e-05,6.14744189,-1.16976811,-1,-0.9967807732775071
7.03858187e+04,9.19999318e-01,-3.59820825e-12,1.21655963,3.71828963,6.94377700e-01,-3.84509847,4.35791963e-05,6.15107043,-1.15888254,-1,-0.9966107531634757
7.40587262e+04,9.19999305e-01,-3.50599518e-12,1.20911063,3.71847576,6.90280949e-01,-3.84509847,4.32902544e-05,6.15506128,-1.14690949,-1,-0.9964314332544913
7.79061241e+04,9.19999292e-01,-3.40587922e-12,1.20085452,3.71867929,6.85745839e-01,-3.84509847,4.29613678e-05,6.15948000,-1.13365119,-1,-0.9962435943172858
8.19413055e+04,9.19999279e-01,-3.29535689e-12,1.19153867,3.71890595,6.80634591e-01,-3.84509847,4.25767264e-05,6.16446106,-1.11870652,-1,-0.9960465873517188
8.61690987e+04,9.19999265e-01,-3.17328122e-12,1.18090595,3.71916159,6.74806942e-01,-3.84509847,4.21333206e-05,6.17014163,-1.10166049,-1,-0.9958401766289253
9.05846317e+04,9.19999251e-01,-3.03853807e-12,1.16875133,3.71944937,6.68154071e-01,-3.84509847,4.16180648e-05,6.17662841,-1.08219620,-1,-0.9956246000113064
9.51955860e+04,9.19999238e-01,-2.89040654e-12,1.15479648,3.71977732,6.60520745e-01,-3.84509847,4.10227087e-05,6.18407318,-1.05985520,-1,-0.9953994824701194
9.99951895e+04,9.19999224e-01,-2.73132004e-12,1.13898205,3.72013994,6.51888290e-01,-3.84509847,4.03480787e-05,6.19249479,-1.03458393,-1,-0.9951651546350785
1.04985539e+05,9.19999211e-01,-2.56528033e-12,1.12146765,3.72052711,6.42356758e-01,-3.84509847,3.95976198e-05,6.20179704,-1.00666707,-1,-0.9949215141355179
1.10186003e+05,9.19999199e-01,-2.39859757e-12,1.10271500,3.72092768,6.32179299e-01,-3.84509847,3.87910035e-05,6.21173435,-9.76840179e-01,-1,-0.9946676153561023
1.15623935e+05,9.19999186e-01,-2.23936414e-12,1.08343642,3.72133423,6.21726909e-01,-3.84509847,3.79874698e-05,6.22194363,-9.46197324e-01,-1,-0.9944021228351764
1.21328948e+05,9.19999174e-01,-2.09047570e-12,1.06411764,3.72172056,6.11294850e-01,-3.84509847,3.71778749e-05,6.23213667,-9.15601653e-01,-1,-0.9941235907970255
1.27326220e+05,9.19999162e-01,-1.95401621e-12,1.04502839,3.72209117,6.01009005e-01,-3.84509847,3.64001600e-05,6.24219318,-8.85411975e-01,-1,-0.9938307899929775
1.33627647e+05,9.19999150e-01,-1.82806544e-12,1.02619485,3.72244423,5.90886117e-01,-3.84509847,3.56357063e-05,6.25224776,-8.55416802e-01,-1,-0.9935231396325719
1.40256681e+05,9.19999138e-01,-1.71167003e-12,1.00758229,3.72276849,5.80931325e-01,-3.84509847,3.48719576e-05,6.26198501,-8.26187022e-01,-1,-0.9931994947344812
1.47225082e+05,9.19999127e-01,-1.60428972e-12,9.89234481e-01,3.72308450,5.71125400e-01,-3.84509847,3.41344560e-05,6.27157886,-7.97383313e-01,-1,-0.9928592811480823
1.54549345e+05,9.19999116e-01,-1.50480887e-12,9.71100864e-01,3.72338439,5.61458806e-01,-3.84509847,3.34096622e-05,6.28104044,-7.68975919e-01,-1,-0.9925016935490107
1.62247441e+05,9.19999104e-01,-1.41235434e-12,9.53165596e-01,3.72366869,5.51922569e-01,-3.84509847,3.26935915e-05,6.29037863,-7.40936165e-01,-1,-0.9921258545511398
1.70340479e+05,9.19999093e-01,-1.32693180e-12,9.35425790e-01,3.72393994,5.42510175e-01,-3.84509847,3.20013719e-05,6.29959967,-7.13253645e-01,-1,-0.9917307335638657
1.78847418e+05,9.19999083e-01,-1.24737113e-12,9.17857461e-01,3.72419566,5.33214564e-01,-3.84509847,3.13174009e-05,6.30870846,-6.85911313e-01,-1,-0.9913154049645978
1.87789215e+05,9.19999072e-01,-1.17337225e-12,9.00481947e-01,3.72444652,5.24025094e-01,-3.84509847,3.06536579e-05,6.31771633,-6.58870836e-01,-1,-0.9908788455837269
1.97184926e+05,9.19999061e-01,-1.10429473e-12,8.83219986e-01,3.72467460,5.14937941e-01,-3.84509847,2.99923280e-05,6.32662651,-6.32118354e-01,-1,-0.9904201250628961
2.07059253e+05,9.19999051e-01,-1.03983964e-12,8.66093428e-01,3.72488836,5.05947139e-01,-3.84509847,2.93416279e-05,6.33544443,-6.05637147e-01,-1,-0.9899380373928632
2.17437804e+05,9.19999040e-01,-9.79573036e-13,8.49081242e-01,3.72508461,4.97048559e-01,-3.84509847,2.86967419e-05,6.34417352,-5.79423303e-01,-1,-0.9894313323313529
2.28345524e+05,9.19999030e-01,-9.23362505e-13,8.32205430e-01,3.72527228,4.88235313e-01,-3.84509847,2.80688212e-05,6.35282063,-5.53459396e-01,-1,-0.9888987920052962
2.39805757e+05,9.19999020e-01,-8.70578166e-13,8.15401470e-01,3.72543669,4.79504516e-01,-3.84509847,2.74393791e-05,6.36138932,-5.27726163e-01,-1,-0.988339276706177
2.51848840e+05,9.19999010e-01,-8.21282406e-13,7.98718432e-01,3.72559346,4.70849452e-01,-3.84509847,2.68273773e-05,6.36988555,-5.02204832e-01,-1,-0.987751305310913
2.64502152e+05,9.19999000e-01,-7.75089458e-13,7.82131040e-01,3.72573792,4.62266841e-01,-3.84509847,2.62259568e-05,6.37831388,-4.76892588e-01,-1,-0.9871335411128791
2.77797673e+05,9.19998990e-01,-7.31697068e-13,7.65624321e-01,3.72586761,4.53754102e-01,-3.84509847,2.56302809e-05,6.38667632,-4.51779371e-01,-1,-0.9864844227739014
2.91775194e+05,9.19998980e-01,-6.90988450e-13,7.49198101e-01,3.72598357,4.45309062e-01,-3.84509847,2.50430458e-05,6.39497397,-4.26860953e-01,-1,-0.9858020076045712
3.06458387e+05,9.19998970e-01,-6.52722885e-13,7.32843048e-01,3.72608556,4.36927565e-01,-3.84509847,2.44633309e-05,6.40321005,-4.02121568e-01,-1,-0.9850851398826481
3.21882019e+05,9.19998960e-01,-6.16695327e-13,7.16557175e-01,3.72617474,4.28606266e-01,-3.84509847,2.38900741e-05,6.41138809,-3.77552148e-01,-1,-0.9843321222021191
3.38097618e+05,9.19998951e-01,-5.82974040e-13,7.00338506e-01,3.72625161,4.20343185e-01,-3.84509847,2.33313895e-05,6.41951001,-3.53150838e-01,-1,-0.9835404388458662
3.55135903e+05,9.19998941e-01,-5.51223381e-13,6.84206720e-01,3.72632344,4.12133635e-01,-3.84509847,2.27840789e-05,6.42758141,-3.28902791e-01,-1,-0.982708590040676
3.73027196e+05,9.19998932e-01,-5.21243033e-13,6.68099555e-01,3.72637499,4.03976949e-01,-3.84509847,2.22382616e-05,6.43560232,-3.04805480e-01,-1,-0.9818350953958009
3.91842500e+05,9.19998922e-01,-4.93067099e-13,6.52054874e-01,3.72641637,3.95871858e-01,-3.84509847,2.17037436e-05,6.44349770,-2.80769457e-01,-1,-0.9809164883792092
4.11601995e+05,9.19998913e-01,-4.66529803e-13,6.36080868e-01,3.72645134,3.87814906e-01,-3.84509847,2.11809819e-05,6.45122059,-2.56714422e-01,-1,-0.9799517837562433
4.32364406e+05,9.19998903e-01,-4.41485002e-13,6.20132466e-01,3.72646798,3.79807433e-01,-3.84509847,2.06621320e-05,6.45877872,-2.32636631e-01,-1,-0.9789381144354626
4.54180725e+05,9.19998894e-01,-4.17904513e-13,6.04235456e-01,3.72647346,3.71847964e-01,-3.84509847,2.01536526e-05,6.46618449,-2.08527129e-01,-1,-0.9778729908685193
4.77093743e+05,9.19998885e-01,-3.95658184e-13,5.88368560e-01,3.72646216,3.63937111e-01,-3.84509847,1.96531448e-05,6.47345137,-1.84382019e-01,-1,-0.9767543238990091
5.01181187e+05,9.19998876e-01,-3.74603284e-13,5.72565332e-01,3.72644324,3.56073347e-01,-3.84509847,1.91552192e-05,6.48059226,-1.60185837e-01,-1,-0.975578318713541
5.26474207e+05,9.19998867e-01,-3.54877708e-13,5.56829632e-01,3.72641752,3.48256920e-01,-3.84509847,1.86772742e-05,6.48761489,-1.35938001e-01,-1,-0.9743434544964762
