star_age,star_mass,star_mdot,log_L,log_Teff,log_R,log_surf_z,v_wind_Km_per_s,log_center_T,log_center_Rho,phase,x
3.05809525e+03,3.19999978e-01,-6.12956557e-12,9.81448425e-01,3.65579320,7.01814975e-01,-3.84509847,3.07122216e-05,5.71221063,-1.57470218,-1,-1.0
3.23813810e+03,3.19999977e-01,-6.02185815e-12,9.76407707e-01,3.65585774,6.99165531e-01,-3.84509847,3.04472921e-05,5.71467316,-1.56735456,-1,-0.9999992162541592
3.42874119e+03,3.19999976e-01,-5.91194785e-12,9.71161840e-01,3.65592342,6.96411240e-01,-3.84509847,3.01739299e-05,5.71723393,-1.55971385,-1,-0.9999983865384608
3.63037034e+03,3.19999975e-01,-5.79987603e-12,9.65708932e-01,3.65599000,6.93551625e-01,-3.84509847,2.98913759e-05,5.71989331,-1.55177837,-1,-0.9999975088251404
3.84348931e+03,3.19999974e-01,-5.68555040e-12,9.60047179e-01,3.65605727,6.90586202e-01,-3.84509847,2.95988114e-05,5.72265190,-1.54354614,-1,-0.9999965810954009
4.06859916e+03,3.19999972e-01,-5.56939367e-12,9.54188118e-01,3.65612830,6.87514614e-01,-3.84509847,2.92988356e-05,5.72551010,-1.53501665,-1,-0.9999956011680744
4.30736338e+03,3.19999971e-01,-5.45192966e-12,9.48089092e-01,3.65619729,6.84327111e-01,-3.84509847,2.89912758e-05,5.72847733,-1.52616106,-1,-0.9999945618018105
4.56041083e+03,3.19999970e-01,-5.33266263e-12,9.41761189e-01,3.65626689,6.81023968e-01,-3.84509847,2.86743247e-05,5.73155308,-1.51697866,-1,-0.9999934602591141
4.82721589e+03,3.19999968e-01,-5.21155954e-12,9.35221302e-01,3.65633690,6.77614009e-01,-3.84509847,2.83466415e-05,5.73472930,-1.50749718,-1,-0.9999922988280655
5.11064077e+03,3.19999967e-01,-5.08926175e-12,9.28436874e-01,3.65640730,6.74080980e-01,-3.84509847,2.80108908e-05,5.73802175,-1.49766566,-1,-0.9999910650491575
5.40971059e+03,3.19999965e-01,-4.96604164e-12,9.21438493e-01,3.65647940,6.70437603e-01,-3.84509847,2.76687927e-05,5.74141844,-1.48752211,-1,-0.9999897631661472
5.72688287e+03,3.19999964e-01,-4.84196096e-12,9.14192354e-01,3.65655020,6.66672937e-01,-3.84509847,2.73182571e-05,5.74492945,-1.47703407,-1,-0.9999883824811866
6.06137945e+03,3.19999962e-01,-4.71702714e-12,9.06723098e-01,3.65662052,6.62797658e-01,-3.84509847,2.69591647e-05,5.74854541,-1.46623250,-1,-0.9999869263816895
6.41683961e+03,3.19999961e-01,-4.59148306e-12,8.98997886e-01,3.65669005,6.58795988e-01,-3.84509847,2.65913012e-05,5.75228075,-1.45507382,-1,-0.9999853790254798
6.79203759e+03,3.19999959e-01,-4.46558344e-12,8.91043416e-01,3.65675846,6.54681932e-01,-3.84509847,2.62159567e-05,5.75612244,-1.44359575,-1,-0.9999837457484222
7.18859555e+03,3.19999957e-01,-4.33944128e-12,8.82853415e-01,3.65682572,6.50452417e-01,-3.84509847,2.58328586e-05,5.76007334,-1.43179063,-1,-0.9999820194890802
7.60884059e+03,3.19999955e-01,-4.21372707e-12,8.74416038e-01,3.65689125,6.46102662e-01,-3.84509847,2.54444588e-05,5.76413823,-1.41964264,-1,-0.9999801901173379
8.05354482e+03,3.19999954e-01,-4.08824369e-12,8.65747404e-01,3.65695718,6.41636494e-01,-3.84509847,2.50501457e-05,5.76830758,-1.40717333,-1,-0.9999782542721174
8.52379205e+03,3.19999952e-01,-3.96335101e-12,8.56852069e-01,3.65701987,6.37063439e-01,-3.84509847,2.46491657e-05,5.77249039,-1.39455060,-1,-0.9999762072354778
9.02110529e+03,3.19999950e-01,-3.83918981e-12,8.47711866e-01,3.65708031,6.32372475e-01,-3.84509847,2.42429237e-05,5.77686520,-1.38145871,-1,-0.999974042377593
9.54711064e+03,3.19999948e-01,-3.71564336e-12,8.38330290e-01,3.65713722,6.27567866e-01,-3.84509847,2.38293008e-05,5.78134073,-1.36805253,-1,-0.9999717526198755
1.01034500e+04,3.19999946e-01,-3.59331052e-12,8.28705628e-01,3.65719035,6.22649270e-01,-3.84509847,2.34116593e-05,5.78594495,-1.35428254,-1,-0.9999693308149581
1.06918216e+04,3.19999944e-01,-3.47231240e-12,8.18853328e-01,3.65724039,6.17623029e-01,-3.84509847,2.29900232e-05,5.79064295,-1.34022289,-1,-0.9999667695702636
1.13139301e+04,3.19999942e-01,-3.35269786e-12,8.08767840e-01,3.65728677,6.12487528e-01,-3.84509847,2.25640368e-05,5.79545636,-1.32582564,-1,-0.9999640614652243
1.19716671e+04,3.19999940e-01,-3.23466108e-12,7.98446232e-01,3.65732780,6.07244674e-01,-3.84509847,2.21341189e-05,5.80037434,-1.31111258,-1,-0.9999611982655022
1.26684057e+04,3.19999937e-01,-3.11846893e-12,7.87929517e-01,3.65737295,6.01896014e-01,-3.84509847,2.17046956e-05,5.80539406,-1.29609620,-1,-0.9999581652876314
1.34047985e+04,3.19999935e-01,-3.00431402e-12,7.77152634e-01,3.65740469,5.96444081e-01,-3.84509847,2.12702531e-05,5.81051406,-1.28077774,-1,-0.9999549596907739
1.41829361e+04,3.19999933e-01,-2.89210911e-12,7.66185634e-01,3.65743727,5.90895421e-01,-3.84509847,2.08354674e-05,5.81572654,-1.26518113,-1,-0.9999515723743236
1.50061185e+04,3.19999930e-01,-2.78206309e-12,7.54975061e-01,3.65745833,5.85248021e-01,-3.84509847,2.03965471e-05,5.82103491,-1.24929420,-1,-0.9999479889730266
1.58768920e+04,3.19999928e-01,-2.67426280e-12,7.43565845e-01,3.65747664,5.79506802e-01,-3.84509847,1.99571993e-05,5.82643397,-1.23313180,-1,-0.9999441984025659
1.67965535e+04,3.19999926e-01,-2.56896743e-12,7.31954663e-01,3.65748999,5.73674503e-01,-3.84509847,1.95190444e-05,5.83192259,-1.21669712,-1,-0.9999401950173964
1.77704991e+04,3.19999923e-01,-2.46617320e-12,7.20118861e-01,3.65749198,5.67752621e-01,-3.84509847,1.90786569e-05,5.83749883,-1.20000196,-1,-0.9999359553277162
1.87986680e+04,3.19999921e-01,-2.36579537e-12,7.08086345e-01,3.65748630,5.61747723e-01,-3.84509847,1.86378144e-05,5.84315616,-1.18306384,-1,-0.9999314795981941
1.98872659e+04,3.19999918e-01,-2.26810082e-12,6.95856994e-01,3.65747396,5.55657720e-01,-3.84509847,1.81982483e-05,5.84889659,-1.16587799,-1,-0.9999267408147522
2.10371104e+04,3.19999916e-01,-2.17305205e-12,6.83428873e-01,3.65745096,5.49489674e-01,-3.84509847,1.77589797e-05,5.85471268,-1.14846084,-1,-0.9999217354182901
2.22528806e+04,3.19999913e-01,-2.08067192e-12,6.70855447e-01,3.65742970,5.43245477e-01,-3.84509847,1.73243305e-05,5.86060370,-1.13081538,-1,-0.9999164430401835
2.35390322e+04,3.19999911e-01,-1.99132896e-12,6.58064295e-01,3.65739094,5.36927410e-01,-3.84509847,1.68909936e-05,5.86656743,-1.11294649,-1,-0.9999108442842922
2.48977715e+04,3.19999908e-01,-1.90458666e-12,6.45103000e-01,3.65734455,5.30539554e-01,-3.84509847,1.64595635e-05,5.87260092,-1.09486542,-1,-0.9999049295463558
2.63334513e+04,3.19999905e-01,-1.82051709e-12,6.31952895e-01,3.65728348,5.24086634e-01,-3.84509847,1.60287309e-05,5.87869959,-1.07658667,-1,-0.9998986798781688
2.78528978e+04,3.19999903e-01,-1.73927891e-12,6.18633041e-01,3.65721171,5.17570245e-01,-3.84509847,1.56011433e-05,5.88486207,-1.05811248,-1,-0.9998920655645503
2.94587653e+04,3.19999900e-01,-1.66083257e-12,6.05167585e-01,3.65713299,5.10994971e-01,-3.84509847,1.51787273e-05,5.89108401,-1.03945920,-1,-0.9998850750510478
3.11558527e+04,3.19999897e-01,-1.58516353e-12,5.91536446e-01,3.65704031,5.04364763e-01,-3.84509847,1.47643145e-05,5.89736156,-1.02063873,-1,-0.9998776874475346
3.29496264e+04,3.19999895e-01,-1.51223366e-12,5.77770407e-01,3.65693806,4.97686239e-01,-3.84509847,1.43552733e-05,5.90368837,-1.00167126,-1,-0.9998698789581851
3.48455312e+04,3.19999892e-01,-1.44204498e-12,5.63846891e-01,3.65682076,4.90959078e-01,-3.84509847,1.39505477e-05,5.91006445,-9.82551600e-01,-1,-0.9998616258812009
3.68498207e+04,3.19999889e-01,-1.37458540e-12,5.49825466e-01,3.65669934,4.84191202e-01,-3.84509847,1.35531526e-05,5.91648265,-9.63304354e-01,-1,-0.9998529009939902
3.89683114e+04,3.19999886e-01,-1.30979895e-12,5.35645854e-01,3.65655572,4.77388638e-01,-3.84509847,1.31591445e-05,5.92293691,-9.43943663e-01,-1,-0.9998436789767046
4.12081676e+04,3.19999883e-01,-1.24762909e-12,5.21358267e-01,3.65639908,4.70558130e-01,-3.84509847,1.27707495e-05,5.92942140,-9.24487234e-01,-1,-0.9998339286423775
4.35763527e+04,3.19999880e-01,-1.18811696e-12,5.06993863e-01,3.65623317,4.63707734e-01,-3.84509847,1.23899184e-05,5.93592852,-9.04963786e-01,-1,-0.9998236196785819
4.60799751e+04,3.19999878e-01,-1.13126225e-12,4.92565168e-01,3.65605613,4.56847486e-01,-3.84509847,1.20171458e-05,5.94244829,-8.85401003e-01,-1,-0.9998127211416898
4.87267982e+04,3.19999875e-01,-1.07699477e-12,4.78076937e-01,3.65586365,4.49988330e-01,-3.84509847,1.16516015e-05,5.94897005,-8.65828890e-01,-1,-0.9998011992367882
5.15254539e+04,3.19999872e-01,-1.02533483e-12,4.63564980e-01,3.65565758,4.43144480e-01,-3.84509847,1.12947198e-05,5.95548061,-8.46286913e-01,-1,-0.9997890163882905
5.44851544e+04,3.19999869e-01,-9.76232032e-13,4.49074232e-01,3.65544051,4.36333252e-01,-3.84509847,1.09471294e-05,5.96196339,-8.26826053e-01,-1,-0.9997761324945018
5.76157984e+04,3.19999866e-01,-9.29719661e-13,4.34658940e-01,3.65521581,4.29575012e-01,-3.84509847,1.06105147e-05,5.96839958,-8.07502562e-01,-1,-0.999762504465319
6.09284444e+04,3.19999863e-01,-8.85861835e-13,4.20409188e-01,3.65499312,4.22895514e-01,-3.84509847,1.02876503e-05,5.97476464,-7.88391277e-01,-1,-0.9997480841619052
6.44338507e+04,3.19999860e-01,-8.44729623e-13,4.06320284e-01,3.65475567,4.16325960e-01,-3.84509847,9.97724853e-06,5.98102798,-7.69583299e-01,-1,-0.9997328247522266
6.81451889e+04,3.19999857e-01,-8.06242051e-13,3.92537257e-01,3.65452193,4.09901925e-01,-3.84509847,9.68162220e-06,5.98715540,-7.51183204e-01,-1,-0.9997166688988951
7.20747064e+04,3.19999854e-01,-7.70453804e-13,3.79089589e-01,3.65427687,4.03668201e-01,-3.84509847,9.39952077e-06,5.99310360,-7.33316013e-01,-1,-0.9996995632876648
7.62361307e+04,3.19999851e-01,-7.37420415e-13,3.66122554e-01,3.65403349,3.97671448e-01,-3.84509847,9.13405300e-06,5.99882784,-7.16121867e-01,-1,-0.9996814481612556
8.06450985e+04,3.19999848e-01,-7.07207151e-13,3.53755551e-01,3.65379809,3.91958744e-01,-3.84509847,8.88735025e-06,6.00428337,-6.99732632e-01,-1,-0.9996622554514347
8.53246747e+04,3.19999844e-01,-6.79858654e-13,3.42088076e-01,3.65356667,3.86587843e-01,-3.84509847,8.65941611e-06,6.00941458,-6.84317435e-01,-1,-0.9996418847542181
9.02801084e+04,3.19999841e-01,-6.55266321e-13,3.31215089e-01,3.65335020,3.81584305e-01,-3.84509847,8.45185092e-06,6.01419685,-6.69949826e-01,-1,-0.9996203132197105
9.55375072e+04,3.19999838e-01,-6.33396287e-13,3.21189237e-01,3.65314228,3.76987204e-01,-3.84509847,8.26385279e-06,6.01859221,-6.56745387e-01,-1,-0.9995974271987281
1.01116346e+05,3.19999834e-01,-6.14093699e-13,3.12065864e-01,3.65295186,3.72806374e-01,-3.84509847,8.09588726e-06,6.02259069,-6.44731326e-01,-1,-0.9995731419149423
1.07027537e+05,3.19999831e-01,-5.97090375e-13,3.03776387e-01,3.65277413,3.69017077e-01,-3.84509847,7.94601157e-06,6.02621593,-6.33837007e-01,-1,-0.9995474098663755
1.13290196e+05,3.19999827e-01,-5.82115718e-13,2.96270305e-01,3.65261415,3.65583997e-01,-3.84509847,7.81320583e-06,6.02950123,-6.23962383e-01,-1,-0.9995201478398997
1.19946651e+05,3.19999823e-01,-5.68901185e-13,2.89429957e-01,3.65246393,3.62464267e-01,-3.84509847,7.69494643e-06,6.03248724,-6.14988622e-01,-1,-0.9994911715771903
1.26976014e+05,3.19999819e-01,-5.56895247e-13,2.83069883e-01,3.65232859,3.59554919e-01,-3.84509847,7.58765052e-06,6.03527262,-6.06617588e-01,-1,-0.9994605720059516
1.34443470e+05,3.19999815e-01,-5.45879814e-13,2.77010110e-01,3.65219289,3.56796432e-01,-3.84509847,7.48840941e-06,6.03791380,-5.98679556e-01,-1,-0.9994280653688861
1.42317769e+05,3.19999811e-01,-5.35350502e-13,2.71064233e-01,3.65205849,3.54092293e-01,-3.84509847,7.39326324e-06,6.04050347,-5.90895675e-01,-1,-0.9993937877005961
1.50685513e+05,3.19999807e-01,-5.25024812e-13,2.65049658e-01,3.65192126,3.51359459e-01,-3.84509847,7.29974246e-06,6.04312121,-5.83027694e-01,-1,-0.999357362013285
1.59536883e+05,3.19999802e-01,-5.14529152e-13,2.58776993e-01,3.65177638,3.48512897e-01,-3.84509847,7.20421427e-06,6.04584827,-5.74830073e-01,-1,-0.9993188310501131
1.68872969e+05,3.19999797e-01,-5.03560561e-13,2.52086311e-01,3.65162011,3.45480093e-01,-3.84509847,7.10362268e-06,6.04875431,-5.66096234e-01,-1,-0.9992781900661938
1.78765962e+05,3.19999792e-01,-4.91740840e-13,2.44734056e-01,3.65144638,3.42151421e-01,-3.84509847,6.99391867e-06,6.05194432,-5.56506371e-01,-1,-0.9992351248063592
1.89221404e+05,3.19999787e-01,-4.78767287e-13,2.36521659e-01,3.65124998,3.38438017e-01,-3.84509847,6.87186297e-06,6.05550393,-5.45806594e-01,-1,-0.9991896111456889
2.00253900e+05,3.19999782e-01,-4.64345301e-13,2.27212013e-01,3.65102455,3.34234056e-01,-3.84509847,6.73399035e-06,6.05953472,-5.33686968e-01,-1,-0.9991415855070512
2.11883169e+05,3.19999777e-01,-4.48183952e-13,2.16535763e-01,3.65076538,3.29414272e-01,-3.84509847,6.57724045e-06,6.06415760,-5.19787283e-01,-1,-0.9990909620515236
2.24140479e+05,3.19999772e-01,-4.29950472e-13,2.04090334e-01,3.65046024,3.23801830e-01,-3.84509847,6.39733027e-06,6.06954204,-5.03595393e-01,-1,-0.9990376046661477
2.37006921e+05,3.19999766e-01,-4.09479311e-13,1.89513296e-01,3.65009100,3.17251808e-01,-3.84509847,6.19085908e-06,6.07582811,-4.84691113e-01,-1,-0.9989815956638289
2.50478254e+05,3.19999761e-01,-3.86648446e-13,1.72449193e-01,3.64965654,3.09588677e-01,-3.84509847,5.95602035e-06,6.08318596,-4.62559780e-01,-1,-0.9989229535060954
2.64526704e+05,3.19999756e-01,-3.61799850e-13,1.52646173e-01,3.64913797,3.00724293e-01,-3.84509847,5.69411863e-06,6.09170140,-4.36946187e-01,-1,-0.9988617990961486
2.79149112e+05,3.19999751e-01,-3.35571234e-13,1.30229564e-01,3.64853520,2.90721542e-01,-3.84509847,5.40937087e-06,6.10131478,-4.08023142e-01,-1,-0.9987981461854545
2.94391096e+05,3.19999746e-01,-3.09299427e-13,1.05917762e-01,3.64786470,2.79906641e-01,-3.84509847,5.11521704e-06,6.11171309,-3.76730347e-01,-1,-0.9987317961939651
3.10381204e+05,3.19999741e-01,-2.84400415e-13,8.08178929e-02,3.64715923,2.68767639e-01,-3.84509847,4.82756383e-06,6.12243073,-3.44471459e-01,-1,-0.9986621895384462
3.27258252e+05,3.19999737e-01,-2.61689426e-13,5.58827436e-02,3.64645639,2.57705744e-01,-3.84509847,4.55741249e-06,6.13308297,-3.12408361e-01,-1,-0.9985887219379577
3.45111333e+05,3.19999732e-01,-2.41279805e-13,3.14201758e-02,3.64575485,2.46877534e-01,-3.84509847,4.30684613e-06,6.14354591,-2.80939666e-01,-1,-0.9985110055611127
3.63999645e+05,3.19999728e-01,-2.22839338e-13,7.44577216e-03,3.64505048,2.36299078e-01,-3.84509847,4.07211892e-06,6.15380751,-2.50114736e-01,-1,-0.9984287827126668
3.83983920e+05,3.19999724e-01,-2.06133165e-13,-1.60366177e-02,3.64435415,2.25950536e-01,-3.84509847,3.85223208e-06,6.16378430,-2.20055877e-01,-1,-0.9983417890197085
4.05134222e+05,3.19999719e-01,-1.90971726e-13,-3.90504538e-02,3.64366865,2.15814618e-01,-3.84509847,3.64592485e-06,6.17356257,-1.90594966e-01,-1,-0.9982497194861296
4.27506883e+05,3.19999715e-01,-1.77195481e-13,-6.16348721e-02,3.64299410,2.05871507e-01,-3.84509847,3.45236221e-06,6.18316009,-1.61678803e-01,-1,-0.9981523288926909
4.51173516e+05,3.19999711e-01,-1.64619642e-13,-8.38171961e-02,3.64233176,1.96105042e-01,-3.84509847,3.26948928e-06,6.19258926,-1.33262712e-01,-1,-0.9980493055003208
4.76203451e+05,3.19999707e-01,-1.53128166e-13,-1.05616398e-01,3.64168437,1.86500220e-01,-3.84509847,3.09295385e-06,6.20186451,-1.05295407e-01,-1,-0.9979403475080917
5.02684782e+05,3.19999704e-01,-1.42613535e-13,-1.27057946e-01,3.64105161,1.77044967e-01,-3.84509847,2.92682035e-06,6.21100074,-7.77421790e-02,-1,-0.997825071433371
5.30684557e+05,3.19999700e-01,-1.32948478e-13,-1.48170642e-01,3.64043286,1.67726121e-01,-3.84509847,2.76987130e-06,6.22000892,-5.05769927e-02,-1,-0.9977031854090218
5.60290361e+05,3.19999696e-01,-1.24075750e-13,-1.68972586e-01,3.63982898,1.58532893e-01,-3.84509847,2.62210631e-06,6.22889916,-2.37633194e-02,-1,-0.9975743081681433
5.91607628e+05,3.19999692e-01,-1.15897301e-13,-1.89494265e-01,3.63923617,1.49457683e-01,-3.84509847,2.48222056e-06,6.23767717,2.72223742e-03,-1,-0.9974379807452226
6.24724419e+05,3.19999689e-01,-1.08350910e-13,-2.09737148e-01,3.63865971,1.40489163e-01,-3.84509847,2.35016169e-06,6.24635385,2.89073445e-02,-1,-0.9972938198012796
6.59735603e+05,3.19999685e-01,-1.01382942e-13,-2.29748377e-01,3.63809145,1.31620066e-01,-3.84509847,2.22520062e-06,6.25493754,5.48221995e-02,-1,-0.99714141236138
6.96753132e+05,3.19999681e-01,-9.49272986e-14,-2.49525181e-01,3.63753641,1.22841732e-01,-3.84509847,2.10687937e-06,6.26343600,8.04799944e-02,-1,-0.9969802710864576
7.35889321e+05,3.19999678e-01,-8.89429664e-14,-2.69094144e-01,3.63699126,1.14147569e-01,-3.84509847,1.99478440e-06,6.27185434,1.05902527e-01,-1,-0.9968099070572686
7.77264759e+05,3.19999674e-01,-8.33878800e-14,-2.88468007e-01,3.63645597,1.05531201e-01,-3.84509847,1.88853612e-06,6.28019872,1.31110973e-01,-1,-0.9966297953369593
8.21006994e+05,3.19999671e-01,-7.82250655e-14,-3.07657771e-01,3.63593083,9.69865980e-02,-3.84509847,1.78783948e-06,6.28847622,1.56119292e-01,-1,-0.9964393806954025
8.67251252e+05,3.19999667e-01,-7.34247026e-14,-3.26670583e-01,3.63541654,8.85087822e-02,-3.84509847,1.69247682e-06,6.29669034,1.80938878e-01,-1,-0.9962380744793135
9.16137352e+05,3.19999664e-01,-6.89531342e-14,-3.45524514e-01,3.63491043,8.00940256e-02,-3.84509847,1.60198636e-06,6.30484477,2.05586567e-01,-1,-0.9960252680415854
9.67818782e+05,3.19999660e-01,-6.47817935e-14,-3.64223081e-01,3.63441391,7.17377983e-02,-3.84509847,1.51608760e-06,6.31294433,2.30075042e-01,-1,-0.9958002932324886
1.02244975e+06,3.19999657e-01,-6.08974913e-14,-3.82783847e-01,3.63392435,6.34365352e-02,-3.84509847,1.43473209e-06,6.32099205,2.54415961e-01,-1,-0.9955624787680558
1.08020109e+06,3.19999654e-01,-5.72670812e-14,-4.01196000e-01,3.63344718,5.51848016e-02,-3.84509847,1.35759279e-06,6.32899391,2.78623171e-01,-1,-0.9953110809895582
1.14124962e+06,3.19999650e-01,-5.38759668e-14,-4.19504539e-01,3.63297221,4.69804667e-02,-3.84509847,1.27201585e-06,6.33695091,3.02701683e-01,-1,-0.9950453301892729
1.20579609e+06,3.19999647e-01,-5.06989732e-14,-4.37703857e-01,3.63250281,3.88196089e-02,-3.84509847,1.17221352e-06,6.34486579,3.26655175e-01,-1,-0.9947643524809138
1.27402278e+06,3.19999644e-01,-4.77271393e-14,-4.55807498e-01,3.63203721,3.06989850e-02,-3.84509847,1.07979478e-06,6.35274197,3.50497142e-01,-1,-0.9944673543800862
1.34613320e+06,3.19999640e-01,-4.49449115e-14,-4.73822062e-01,3.63157519,2.26157493e-02,-3.84509847,9.94261005e-07,6.36058313,3.74242272e-01,-1,-0.9941534499859278
1.42234364e+06,3.19999637e-01,-4.23339788e-14,-4.91755237e-01,3.63111561,1.45683126e-02,-3.84509847,9.15030355e-07,6.36839009,3.97892979e-01,-1,-0.9938216977648654
1.50288514e+06,3.19999634e-01,-3.98830685e-14,-5.09616582e-01,3.63065715,6.55456318e-03,-3.84509847,8.41648087e-07,6.37616531,4.21455744e-01,-1,-0.9934710919749933
1.58802958e+06,3.19999630e-01,-3.75861041e-14,-5.27405861e-01,3.63020056,-1.42689173e-03,-3.84509847,7.73919978e-07,6.38390839,4.44925023e-01,-1,-0.9931004490935047
1.67804598e+06,3.19999627e-01,-3.54272367e-14,-5.45142045e-01,3.62974202,-9.37790352e-03,-3.84509847,7.11214688e-07,6.39162111,4.68308322e-01,-1,-0.9927085980474795
1.77317190e+06,3.19999624e-01,-3.33967722e-14,-5.62821384e-01,3.62928366,-1.73008568e-02,-3.84509847,6.53273595e-07,6.39930632,4.91614367e-01,-1,-0.9922945047127525
1.87371141e+06,3.19999621e-01,-3.14915251e-14,-5.80430210e-01,3.62883003,-2.51980097e-02,-3.84509847,6.00035734e-07,6.40696664,5.14854736e-01,-1,-0.9918568454399938
1.97994399e+06,3.19999617e-01,-2.96994231e-14,-5.98008155e-01,3.62837125,-3.30694157e-02,-3.84509847,5.50823659e-07,6.41460125,5.38026731e-01,-1,-0.9913944036227809
2.09227327e+06,3.19999614e-01,-2.80128301e-14,-6.15528927e-01,3.62791487,-4.09170577e-02,-3.84509847,5.05592027e-07,6.42221188,5.61134178e-01,-1,-0.9909054222164232
2.21100369e+06,3.19999611e-01,-2.64284077e-14,-6.33012632e-01,3.62745656,-4.87422934e-02,-3.84509847,4.63999424e-07,6.42979979,5.84179157e-01,-1,-0.9903885759609407
2.33647171e+06,3.19999608e-01,-2.49357166e-14,-6.50449023e-01,3.62699987,-5.65470932e-02,-3.84509847,4.25799043e-07,6.43736770,6.07168240e-01,-1,-0.9898424002098585
2.46905300e+06,3.19999605e-01,-2.35304987e-14,-6.67836253e-01,3.62654586,-6.43326966e-02,-3.84509847,3.90791680e-07,6.44491612,6.30109723e-01,-1,-0.9892652596313652
2.60924202e+06,3.19999601e-01,-2.22084131e-14,-6.85171191e-01,3.62609581,-7.21000718e-02,-3.84509847,3.58789057e-07,6.45244470,6.53001148e-01,-1,-0.9886550017880361
