star_age,star_mass,star_mdot,log_L,log_Teff,log_R,log_surf_z,v_wind_Km_per_s,log_center_T,log_center_Rho,phase,x
1.12518193e+03,7.49999950e-01,-4.21599944e-11,1.82750152,3.68638893,1.06365005,-3.84509847,5.66452606e-05,5.71288865,-2.29705610,-1,-1.0
1.18545129e+03,7.49999948e-01,-4.14823144e-11,1.82307227,3.68658891,1.06103547,-3.84509847,5.65726352e-05,5.71535595,-2.28968929,-1,-0.9999979800206347
1.24896273e+03,7.49999945e-01,-4.07911199e-11,1.81848066,3.68679572,1.05832604,-3.84509847,5.64963524e-05,5.71791264,-2.28205370,-1,-0.9999958513801736
1.31585944e+03,7.49999942e-01,-4.00873620e-11,1.81372434,3.68700936,1.05552061,-3.84509847,5.64160854e-05,5.72056098,-2.27414330,-1,-0.9999936092794808
1.38628240e+03,7.49999940e-01,-3.93717878e-11,1.80880271,3.68722984,1.05261883,-3.84509847,5.63317139e-05,5.72330055,-2.26595983,-1,-0.9999912489934906
1.46037183e+03,7.49999937e-01,-3.86453063e-11,1.80373010,3.68746098,1.04962024,-3.84509847,5.62490942e-05,5.72613221,-2.25749965,-1,-0.9999887658226092
1.53825964e+03,7.49999934e-01,-3.79085198e-11,1.79848939,3.68769856,1.04652473,-3.84509847,5.61614283e-05,5.72905630,-2.24876479,-1,-0.9999861553457597
1.62040271e+03,7.49999931e-01,-3.71615204e-11,1.79305541,3.68793983,1.04332520,-3.84509847,5.60635787e-05,5.73207922,-2.23973131,-1,-0.9999834022502165
1.70711587e+03,7.49999927e-01,-3.64080035e-11,1.78743515,3.68818810,1.04001852,-3.84509847,5.59643952e-05,5.73520418,-2.23039342,-1,-0.9999804959841818
1.79812259e+03,7.49999924e-01,-3.56458704e-11,1.78164722,3.68844273,1.03661531,-3.84509847,5.58587582e-05,5.73842107,-2.22077946,-1,-0.999977445815796
1.89411607e+03,7.49999921e-01,-3.48760271e-11,1.77567435,3.68870478,1.03310477,-3.84509847,5.57471097e-05,5.74174055,-2.21085756,-1,-0.9999742285118656
1.99522382e+03,7.49999917e-01,-3.41004372e-11,1.76951044,3.68897178,1.02948882,-3.84509847,5.56277845e-05,5.74516055,-2.20063417,-1,-0.9999708397987837
2.10153497e+03,7.49999914e-01,-3.33051946e-11,1.76316721,3.68924538,1.02577000,-3.84509847,5.54783424e-05,5.74867871,-2.19011686,-1,-0.9999672766892814
2.21359690e+03,7.49999910e-01,-3.25215663e-11,1.75663779,3.68952670,1.02194265,-3.84509847,5.53502154e-05,5.75230083,-2.17928909,-1,-0.9999635208374482
2.33164599e+03,7.49999906e-01,-3.17419792e-11,1.74996598,3.68982590,1.01800834,-3.84509847,5.52435742e-05,5.75602523,-2.16815447,-1,-0.9999595643208053
2.45558308e+03,7.49999903e-01,-3.09618478e-11,1.74317007,3.69014485,1.01397249,-3.84509847,5.51521586e-05,5.75984688,-2.15672984,-1,-0.9999554104627852
2.58661407e+03,7.49999899e-01,-3.01739544e-11,1.73608696,3.69044945,1.00982173,-3.84509847,5.50127696e-05,5.76377873,-2.14497465,-1,-0.9999510188466139
2.72431031e+03,7.49999895e-01,-2.93856772e-11,1.72883848,3.69076381,1.00556877,-3.84509847,5.48709341e-05,5.76780849,-2.13292621,-1,-0.9999464038388639
2.86911348e+03,7.49999890e-01,-2.85982609e-11,1.72142297,3.69108851,1.00121162,-3.84509847,5.47275378e-05,5.77193842,-2.12057797,-1,-0.9999415506362509
3.02160502e+03,7.49999886e-01,-2.78131948e-11,1.71378433,3.69141049,9.96748337e-01,-3.84509847,5.45646978e-05,5.77617095,-2.10792207,-1,-0.9999364397513139
3.18236840e+03,7.49999882e-01,-2.70319031e-11,1.70596270,3.69174035,9.92177793e-01,-3.84509847,5.43976350e-05,5.78050646,-2.09495493,-1,-0.9999310516285546
3.35151250e+03,7.49999877e-01,-2.62543948e-11,1.69794854,3.69207332,9.87504775e-01,-3.84509847,5.42182557e-05,5.78494142,-2.08168981,-1,-0.9999253826187663
3.52950341e+03,7.49999873e-01,-2.54768964e-11,1.68975316,3.69241210,9.82729534e-01,-3.84509847,5.40202768e-05,5.78947486,-2.06812883,-1,-0.9999194171005426
3.71685560e+03,7.49999868e-01,-2.47140582e-11,1.68137741,3.69275648,9.77852896e-01,-3.84509847,5.38320014e-05,5.79410593,-2.05427510,-1,-0.9999131378309791
3.91404359e+03,7.49999863e-01,-2.39570569e-11,1.67282169,3.69310586,9.72876273e-01,-3.84509847,5.36326428e-05,5.79883319,-2.04013166,-1,-0.9999065289061309
4.12157604e+03,7.49999858e-01,-2.32074102e-11,1.66408865,3.69346026,9.67800960e-01,-3.84509847,5.34230461e-05,5.80365559,-2.02570170,-1,-0.999899573277821
4.33997424e+03,7.49999853e-01,-2.24668521e-11,1.65518082,3.69381968,9.62628197e-01,-3.84509847,5.32056231e-05,5.80857191,-2.01098723,-1,-0.9998922534745672
4.56978995e+03,7.49999848e-01,-2.17358753e-11,1.64609997,3.69418079,9.57365561e-01,-3.84509847,5.29741960e-05,5.81347335,-1.99618671,-1,-0.9998845510036594
4.81174418e+03,7.49999843e-01,-2.10177141e-11,1.63689371,3.69456088,9.52002240e-01,-3.84509847,5.27599413e-05,5.81855903,-1.98094008,-1,-0.9998764416998281
5.06660323e+03,7.49999838e-01,-2.03109875e-11,1.62747503,3.69493275,9.46549158e-01,-3.84509847,5.25191240e-05,5.82369436,-1.96550226,-1,-0.9998678998798707
5.33466188e+03,7.49999833e-01,-1.96147162e-11,1.61789116,3.69530904,9.41004651e-01,-3.84509847,5.22676416e-05,5.82896337,-1.94971888,-1,-0.9998589156639822
5.61654347e+03,7.49999827e-01,-1.89311477e-11,1.60819706,3.69570446,9.35366750e-01,-3.84509847,5.20290254e-05,5.83433544,-1.93363947,-1,-0.9998494681603872
5.91343834e+03,7.49999822e-01,-1.82636972e-11,1.59828330,3.69608839,9.29642019e-01,-3.84509847,5.17694081e-05,5.83978700,-1.91731844,-1,-0.9998395174738182
6.22585539e+03,7.49999816e-01,-1.76097951e-11,1.58821981,3.69647692,9.23833224e-01,-3.84509847,5.15027752e-05,5.84532444,-1.90074009,-1,-0.9998290465480545
6.55418521e+03,7.49999811e-01,-1.69682478e-11,1.57799379,3.69686529,9.17943472e-01,-3.84509847,5.12197383e-05,5.85094091,-1.88392331,-1,-0.999818042292137
6.90036240e+03,7.49999805e-01,-1.63413901e-11,1.56761130,3.69725740,9.11967991e-01,-3.84509847,5.09284357e-05,5.85664284,-1.86684862,-1,-0.9998064398662849
7.26397765e+03,7.49999799e-01,-1.57288260e-11,1.55707699,3.69764889,9.05917857e-01,-3.84509847,5.06246458e-05,5.86241765,-1.84955350,-1,-0.9997942529888745
7.64714328e+03,7.49999793e-01,-1.51300252e-11,1.54638272,3.69803946,8.99789586e-01,-3.84509847,5.03019520e-05,5.86826961,-1.83202516,-1,-0.9997814108636868
8.04963847e+03,7.49999787e-01,-1.45487064e-11,1.53555676,3.69843279,8.93589956e-01,-3.84509847,4.99812294e-05,5.87419323,-1.81428019,-1,-0.9997679208916935
8.47394938e+03,7.49999781e-01,-1.39830539e-11,1.52461014,3.69883283,8.87316554e-01,-3.84509847,4.96561613e-05,5.88019002,-1.79631389,-1,-0.9997536997471071
8.91983116e+03,7.49999775e-01,-1.34327677e-11,1.51350577,3.69922682,8.80976388e-01,-3.84509847,4.93144638e-05,5.88625409,-1.77814967,-1,-0.9997387556362856
9.38903851e+03,7.49999769e-01,-1.28977029e-11,1.50225676,3.69961788,8.74569777e-01,-3.84509847,4.89581155e-05,5.89238456,-1.75978702,-1,-0.9997230297489513
9.88297942e+03,7.49999763e-01,-1.23788858e-11,1.49089000,3.70001199,8.68098168e-01,-3.84509847,4.85978341e-05,5.89858027,-1.74122838,-1,-0.9997064748951102
1.04022814e+04,7.49999757e-01,-1.18733405e-11,1.47938678,3.70040258,8.61565389e-01,-3.84509847,4.82159812e-05,5.90483665,-1.72248491,-1,-0.9996890700432256
1.09485396e+04,7.49999750e-01,-1.13868153e-11,1.46777427,3.70079594,8.54972415e-01,-3.84509847,4.78436834e-05,5.91115349,-1.70355711,-1,-0.9996707617304752
1.15238397e+04,7.49999744e-01,-1.09145135e-11,1.45604244,3.70118834,8.48321693e-01,-3.84509847,4.74555591e-05,5.91752800,-1.68445491,-1,-0.9996514800535024
1.21289459e+04,7.49999738e-01,-1.04585231e-11,1.44423546,3.70158929,8.41616301e-01,-3.84509847,4.70745905e-05,5.92395745,-1.66518642,-1,-0.9996311993994877
1.27654152e+04,7.49999731e-01,-1.00189311e-11,1.43232660,3.70199175,8.34856960e-01,-3.84509847,4.66943479e-05,5.93044176,-1.64575369,-1,-0.9996098675842392
1.34348592e+04,7.49999725e-01,-9.59315128e-12,1.42028265,3.70238471,8.28049061e-01,-3.84509847,4.62924719e-05,5.93697582,-1.62616812,-1,-0.9995874305935982
1.41390961e+04,7.49999718e-01,-9.18139012e-12,1.40813014,3.70277417,8.21193879e-01,-3.84509847,4.58768048e-05,5.94355881,-1.60643757,-1,-0.9995638274890305
1.48801251e+04,7.49999712e-01,-8.78645788e-12,1.39589425,3.70316502,8.14294242e-01,-3.84509847,4.54685455e-05,5.95018813,-1.58656792,-1,-0.9995389912656307
1.56599874e+04,7.49999705e-01,-8.40548222e-12,1.38355499,3.70355128,8.07352082e-01,-3.84509847,4.50484732e-05,5.95686132,-1.56656650,-1,-0.9995128535108279
1.64803359e+04,7.49999698e-01,-8.03749239e-12,1.37112358,3.70393485,8.00369251e-01,-3.84509847,4.46157595e-05,5.96357625,-1.54643752,-1,-0.9994853588262587
1.73433393e+04,7.49999691e-01,-7.68412979e-12,1.35861436,3.70431638,7.93351577e-01,-3.84509847,4.41818113e-05,5.97032699,-1.52619856,-1,-0.9994564345260799
1.82512303e+04,7.49999685e-01,-7.34426853e-12,1.34602872,3.70469527,7.86300979e-01,-3.84509847,4.37417222e-05,5.97711220,-1.50585676,-1,-0.9994260057794335
1.92062828e+04,7.49999678e-01,-7.01657411e-12,1.33335332,3.70506623,7.79221356e-01,-3.84509847,4.32845259e-05,5.98392848,-1.48541893,-1,-0.999393996374608
2.02111293e+04,7.49999671e-01,-6.70423843e-12,1.32063208,3.70543831,7.72116577e-01,-3.84509847,4.28410087e-05,5.99077269,-1.46489493,-1,-0.9993603180811047
2.12683319e+04,7.49999664e-01,-6.40440644e-12,1.30785785,3.70580685,7.64992388e-01,-3.84509847,4.23918980e-05,5.99763957,-1.44430378,-1,-0.9993248850279416
2.23807814e+04,7.49999657e-01,-6.11701551e-12,1.29508719,3.70618408,7.57852590e-01,-3.84509847,4.19506633e-05,6.00452414,-1.42366185,-1,-0.9992876003274739
2.35510806e+04,7.49999650e-01,-5.84188095e-12,1.28223102,3.70654329,7.50706073e-01,-3.84509847,4.14925879e-05,6.01141702,-1.40299445,-1,-0.9992483767446239
2.47824962e+04,7.49999643e-01,-5.57863705e-12,1.26935522,3.70689677,7.43561216e-01,-3.84509847,4.10299220e-05,6.01831056,-1.38232163,-1,-0.9992071047931355
2.60782789e+04,7.49999636e-01,-5.32645853e-12,1.25648386,3.70724554,7.36427997e-01,-3.84509847,4.05593906e-05,6.02519562,-1.36167271,-1,-0.999163675523006
2.74420386e+04,7.49999629e-01,-5.08792802e-12,1.24364420,3.70758952,7.29320221e-01,-3.84509847,4.01027751e-05,6.03205937,-1.34108349,-1,-0.9991179679453366
2.88775171e+04,7.49999622e-01,-4.86051632e-12,1.23086023,3.70792633,7.22254608e-01,-3.84509847,3.96415609e-05,6.03888577,-1.32060755,-1,-0.9990698566504864
3.03886616e+04,7.49999615e-01,-4.64464413e-12,1.21815167,3.70825147,7.15250050e-01,-3.84509847,3.91770396e-05,6.04565603,-1.30029724,-1,-0.9990192093446573
3.19798964e+04,7.49999608e-01,-4.44054245e-12,1.20558013,3.70856699,7.08333232e-01,-3.84509847,3.87149331e-05,6.05234457,-1.28023300,-1,-0.9989658777436345
3.36558674e+04,7.49999601e-01,-4.24823496e-12,1.19319537,3.70887218,7.01530486e-01,-3.84509847,3.82580290e-05,6.05892549,-1.26049375,-1,-0.9989097061360895
3.54215504e+04,7.49999593e-01,-4.06757948e-12,1.18106438,3.70916518,6.94878987e-01,-3.84509847,3.78047126e-05,6.06536229,-1.24118631,-1,-0.9988505277538114
3.72824452e+04,7.49999586e-01,-3.90003208e-12,1.16927323,3.70944771,6.88418344e-01,-3.84509847,3.73726416e-05,6.07161683,-1.22242264,-1,-0.9987881582662796
3.92438596e+04,7.49999579e-01,-3.74444071e-12,1.15788721,3.70971466,6.82191440e-01,-3.84509847,3.69497926e-05,6.07764749,-1.20433105,-1,-0.9987224197780182
4.13110041e+04,7.49999571e-01,-3.60119219e-12,1.14698696,3.70996455,6.76241530e-01,-3.84509847,3.65421666e-05,6.08341207,-1.18703735,-1,-0.9986531376546445
4.34929058e+04,7.49999563e-01,-3.47105577e-12,1.13667294,3.71019694,6.70619749e-01,-3.84509847,3.61587341e-05,6.08886021,-1.17069423,-1,-0.9985800093451485
4.57936386e+04,7.49999556e-01,-3.35294858e-12,1.12699772,3.71041098,6.65354062e-01,-3.84509847,3.57950587e-05,6.09396454,-1.15538339,-1,-0.9985028983092729
4.82229064e+04,7.49999548e-01,-3.24691225e-12,1.11802049,3.71060600,6.60475394e-01,-3.84509847,3.54560262e-05,6.09869442,-1.14119216,-1,-0.9984214793124743
5.07842894e+04,7.49999540e-01,-3.15195802e-12,1.10974377,3.71078607,6.55976893e-01,-3.84509847,3.51446541e-05,6.10305676,-1.12810253,-1,-0.998335632361275
5.34865193e+04,7.49999531e-01,-3.06734439e-12,1.10212248,3.71094555,6.51847300e-01,-3.84509847,3.48576635e-05,6.10706219,-1.11608246,-1,-0.9982450648052497
5.63375723e+04,7.49999523e-01,-2.99186153e-12,1.09511983,3.71109489,6.48047283e-01,-3.84509847,3.46017410e-05,6.11074874,-1.10501813,-1,-0.9981495093152047
5.93420134e+04,7.49999514e-01,-2.92328255e-12,1.08858005,3.71122797,6.44511248e-01,-3.84509847,3.43604135e-05,6.11418019,-1.09472088,-1,-0.9980488128912443
6.25039601e+04,7.49999505e-01,-2.86001338e-12,1.08239351,3.71135457,6.41164775e-01,-3.84509847,3.41366961e-05,6.11742844,-1.08497345,-1,-0.9979428375318193
6.58488653e+04,7.49999495e-01,-2.80096763e-12,1.07640203,3.71147281,6.37932543e-01,-3.84509847,3.39269320e-05,6.12056641,-1.07555909,-1,-0.9978307301611252
6.93544946e+04,7.49999486e-01,-2.74360424e-12,1.07043728,3.71158915,6.34717502e-01,-3.84509847,3.37218924e-05,6.12368850,-1.06619295,-1,-0.9977132359841746
7.30672680e+04,7.49999476e-01,-2.68637330e-12,1.06430444,3.71170608,6.31417217e-01,-3.84509847,3.35146718e-05,6.12689376,-1.05657646,-1,-0.9975887991947979
7.69541802e+04,7.49999465e-01,-2.62721800e-12,1.05788362,3.71182705,6.27964861e-01,-3.84509847,3.32924691e-05,6.13024716,-1.04651738,-1,-0.9974585259939726
8.10639361e+04,7.49999455e-01,-2.56492988e-12,1.05091311,3.71195757,6.24218575e-01,-3.84509847,3.30563131e-05,6.13388664,-1.03559774,-1,-0.9973207839951429
8.53704559e+04,7.49999444e-01,-2.49843123e-12,1.04328380,3.71209830,6.20122452e-01,-3.84509847,3.27986946e-05,6.13786641,-1.02365701,-1,-0.9971764472852054
8.98987853e+04,7.49999433e-01,-2.42508766e-12,1.03473010,3.71225332,6.15535567e-01,-3.84509847,3.24980803e-05,6.14232418,-1.01028054,-1,-0.9970246764360132
9.46547204e+04,7.49999422e-01,-2.34386710e-12,1.02499853,3.71242572,6.10324979e-01,-3.84509847,3.21497254e-05,6.14738872,-9.95079935e-01,-1,-0.9968652771862966
9.96385280e+04,7.49999410e-01,-2.25341580e-12,1.01383572,3.71261883,6.04357346e-01,-3.84509847,3.17413999e-05,6.15319078,-9.77666652e-01,-1,-0.9966982405940243
1.04851429e+05,7.49999399e-01,-2.15306327e-12,1.00096417,3.71283546,5.97488312e-01,-3.84509847,3.12655425e-05,6.15987103,-9.57618948e-01,-1,-0.9965235257396843
1.10289178e+05,7.49999388e-01,-2.04291306e-12,9.86197559e-01,3.71308259,5.89610753e-01,-3.84509847,3.07197347e-05,6.16753446,-9.34622623e-01,-1,-0.9963412749115038
1.15950625e+05,7.49999377e-01,-1.92484833e-12,9.69414242e-01,3.71334816,5.80687947e-01,-3.84509847,3.01017110e-05,6.17621780,-9.08561191e-01,-1,-0.9961515266527207
1.21842501e+05,7.49999366e-01,-1.80234933e-12,9.50896148e-01,3.71363792,5.70849384e-01,-3.84509847,2.94291104e-05,6.18579640,-8.79809114e-01,-1,-0.9959540553680887
1.27986063e+05,7.49999355e-01,-1.68030309e-12,9.31137579e-01,3.71391886,5.60408217e-01,-3.84509847,2.87053447e-05,6.19596648,-8.49278171e-01,-1,-0.9957481486109953
1.34418374e+05,7.49999345e-01,-1.56469448e-12,9.10921668e-01,3.71419198,5.49754020e-01,-3.84509847,2.79847996e-05,6.20635021,-8.18106393e-01,-1,-0.9955325641831623
1.41179606e+05,7.49999335e-01,-1.45756149e-12,8.90773505e-01,3.71444680,5.39170314e-01,-3.84509847,2.72733659e-05,6.21667039,-7.87127815e-01,-1,-0.9953059556855064
1.48294710e+05,7.49999325e-01,-1.35934402e-12,8.70924169e-01,3.71469028,5.28758674e-01,-3.84509847,2.65875914e-05,6.22682789,-7.56624659e-01,-1,-0.9950674868638322
1.55779296e+05,7.49999315e-01,-1.26936219e-12,8.51294154e-01,3.71489704,5.18530147e-01,-3.84509847,2.59137943e-05,6.23697444,-7.26359171e-01,-1,-0.9948166345355823
1.63657010e+05,7.49999305e-01,-1.18616784e-12,8.31942283e-01,3.71508730,5.08473703e-01,-3.84509847,2.52498547e-05,6.24679019,-6.96887290e-01,-1,-0.9945526061847577
1.71950578e+05,7.49999296e-01,-1.10962133e-12,8.12850529e-01,3.71526256,4.98577301e-01,-3.84509847,2.46059668e-05,6.25645398,-6.67877705e-01,-1,-0.9942746401299488
1.80675388e+05,7.49999287e-01,-1.03887527e-12,7.93980585e-01,3.71541870,4.88830045e-01,-3.84509847,2.39759197e-05,6.26597588,-6.39287601e-01,-1,-0.9939822206291191
1.89854402e+05,7.49999277e-01,-9.73373712e-13,7.75325129e-01,3.71555830,4.79223118e-01,-3.84509847,2.33590256e-05,6.27536428,-6.11088469e-01,-1,-0.9936745780911167
1.99511933e+05,7.49999268e-01,-9.12770433e-13,7.56866158e-01,3.71568071,4.69748819e-01,-3.84509847,2.27576140e-05,6.28462619,-5.83267701e-01,-1,-0.9933508976448644
2.09676008e+05,7.49999259e-01,-8.56548162e-13,7.38596413e-01,3.71578841,4.60398536e-01,-3.84509847,2.21698770e-05,6.29376877,-5.55808370e-01,-1,-0.9930102399413848
2.20368063e+05,7.49999251e-01,-8.04282632e-13,7.20484118e-01,3.71587733,4.51164553e-01,-3.84509847,2.15925618e-05,6.30279932,-5.28683773e-01,-1,-0.9926518865347268
2.31615875e+05,7.49999242e-01,-7.55594284e-13,7.02526144e-01,3.71595033,4.42039568e-01,-3.84509847,2.10253991e-05,6.31172690,-5.01871071e-01,-1,-0.992274906454878
2.43448542e+05,7.49999233e-01,-7.10396139e-13,6.84725393e-01,3.71601159,4.33016669e-01,-3.84509847,2.04760441e-05,6.32055889,-4.75341745e-01,-1,-0.9918783244573762
2.55894689e+05,7.49999225e-01,-6.68195270e-13,6.67045447e-01,3.71605396,4.24091961e-01,-3.84509847,1.99343460e-05,6.32929889,-4.49086316e-01,-1,-0.9914611811507605
2.68985618e+05,7.49999216e-01,-6.28786923e-13,6.49471426e-01,3.71607624,4.15260381e-01,-3.84509847,1.94008250e-05,6.33794973,-4.23099350e-01,-1,-0.9910224274216162
2.82761235e+05,7.49999208e-01,-5.91994600e-13,6.32041193e-01,3.71609151,4.06514723e-01,-3.84509847,1.88813135e-05,6.34651732,-3.97356922e-01,-1,-0.9905607257860779
2.97248422e+05,7.49999200e-01,-5.57558563e-13,6.14660993e-01,3.71607649,3.97854678e-01,-3.84509847,1.83648191e-05,6.35500213,-3.71864441e-01,-1,-0.990075175270827
3.12487240e+05,7.49999192e-01,-5.25389610e-13,5.97398667e-01,3.71605194,3.89272609e-01,-3.84509847,1.78626587e-05,6.36341264,-3.46589445e-01,-1,-0.9895644331970403
3.28513610e+05,7.49999184e-01,-4.95226387e-13,5.80226983e-01,3.71601290,3.80764835e-01,-3.84509847,1.73693420e-05,6.37175272,-3.21525303e-01,-1,-0.9890272956415507
3.45367471e+05,7.49999175e-01,-4.66906201e-13,5.63145060e-01,3.71596120,3.72327286e-01,-3.84509847,1.68848033e-05,6.38002668,-2.96663343e-01,-1,-0.9884624240144697
3.63101497e+05,7.49999168e-01,-4.40393382e-13,5.46142669e-01,3.71589534,3.63957798e-01,-3.84509847,1.64114268e-05,6.38823457,-2.71995389e-01,-1,-0.987868052901446
3.81755210e+05,7.49999160e-01,-4.15615506e-13,5.29206587e-01,3.71581376,3.55652926e-01,-3.84509847,1.59508170e-05,6.39638220,-2.47508764e-01,-1,-0.9872428576887043
4.01367981e+05,7.49999152e-01,-3.92268422e-13,5.12334596e-01,3.71571790,3.47408646e-01,-3.84509847,1.54967481e-05,6.40447299,-2.23195640e-01,-1,-0.9865855188233643
4.21995508e+05,7.49999144e-01,-3.70322485e-13,4.95514858e-01,3.71560564,3.39223293e-01,-3.84509847,1.50505502e-05,6.41250768,-1.99050157e-01,-1,-0.9858941695391175
4.43699950e+05,7.49999136e-01,-3.49704159e-13,4.78758290e-01,3.71548052,3.31095256e-01,-3.84509847,1.46141982e-05,6.42048735,-1.75065179e-01,-1,-0.9851667265236905
4.66516607e+05,7.49999128e-01,-3.30317257e-13,4.62059826e-01,3.71534275,3.23021569e-01,-3.84509847,1.41876143e-05,6.42841485,-1.51236552e-01,-1,-0.9844020066672647
4.90525001e+05,7.49999121e-01,-3.12096098e-13,4.45428660e-01,3.71519571,3.15000054e-01,-3.84509847,1.37719868e-05,6.43629208,-1.27556282e-01,-1,-0.9835973447217092
5.15771063e+05,7.49999113e-01,-2.94929621e-13,4.28818737e-01,3.71502908,3.07028367e-01,-3.84509847,1.33627206e-05,6.44412193,-1.04016713e-01,-1,-0.9827512012701092
5.42314418e+05,7.49999106e-01,-2.78759150e-13,4.12246295e-01,3.71484828,2.99103741e-01,-3.84509847,1.29620092e-05,6.45190675,-8.06127682e-02,-1,-0.9818615779293779
5.70244683e+05,7.49999098e-01,-2.63518430e-13,3.95702671e-01,3.71465146,2.91225577e-01,-3.84509847,1.25685041e-05,6.45964774,-5.73358481e-02,-1,-0.9809254711087892
5.99595200e+05,7.49999091e-01,-2.49147346e-13,3.79190747e-01,3.71444042,2.83391687e-01,-3.84509847,1.21834084e-05,6.46734690,-3.41837810e-02,-1,-0.9799417633225758
6.30494535e+05,7.49999083e-01,-2.35612051e-13,3.62714994e-01,3.71421647,2.75601709e-01,-3.84509847,1.18070280e-05,6.47500407,-1.11525166e-02,-1,-0.9789061455708231
6.62966729e+05,7.49999076e-01,-2.22872793e-13,3.46303139e-01,3.71398888,2.67850963e-01,-3.84509847,1.14432199e-05,6.48262352,1.17627418e-02,-1,-0.9778178120987676
