star_age,star_mass,star_mdot,log_L,log_Teff,log_R,log_surf_z,v_wind_Km_per_s,log_center_T,log_center_Rho,phase,x
3.73006968e+02,2.79999981,-4.31017410e-10,2.85449923,3.66561134,1.61870408,-3.84509851,4.31615842e-05,5.71464411,-3.41611372,-1,-1.0
3.90952598e+02,2.79999981,-4.25526645e-10,2.85086581,3.66577178,1.61656649,-3.84509851,4.31061553e-05,5.71671642,-3.40990896,-1,-0.9999897274209634
3.97574557e+02,2.79999980,-4.22300401e-10,2.88298009,3.67447713,1.61521294,-3.84509851,7.01023861e-05,5.71758168,-3.40732885,-1,-0.9999859368269745
4.02253657e+02,2.79999980,-4.19462693e-10,2.92122778,3.68464857,1.61399391,-3.84509851,1.01740004e-04,5.71823985,-3.40537063,-1,-0.999983258379655
4.15503626e+02,2.79999979,-5.05897724e-10,2.93429963,3.68897835,1.61187026,-3.84509847,1.40144571e-04,5.72008543,-3.39985095,-1,-0.999975673727916
4.35402265e+02,2.79999978,-4.98044691e-10,2.92979408,3.68925908,1.60905604,-3.84509847,1.40429454e-04,5.72281963,-3.39166240,-1,-0.9999642831920669
4.56266027e+02,2.79999977,-4.90783688e-10,2.92514729,3.68954513,1.60616054,-3.84509847,1.40909877e-04,5.72563283,-3.38323721,-1,-0.9999523401928996
4.78071992e+02,2.79999976,-4.83004664e-10,2.92037439,3.68983845,1.60318745,-3.84509847,1.41276671e-04,5.72852164,-3.37458477,-1,-0.9999398578504611
5.00954437e+02,2.79999975,-4.74619506e-10,2.91546241,3.69014061,1.60012713,-3.84509847,1.41503067e-04,5.73149529,-3.36567907,-1,-0.9999267593008524
5.24927054e+02,2.79999974,-4.65928192e-10,2.91041146,3.69045102,1.59698085,-3.84509847,1.41666048e-04,5.73455258,-3.35652129,-1,-0.9999130367063908
5.49950450e+02,2.79999973,-4.57068668e-10,2.90522536,3.69076773,1.59375438,-3.84509847,1.41796218e-04,5.73768825,-3.34712956,-1,-0.999898712616728
5.76296799e+02,2.79999972,-4.48134369e-10,2.89988494,3.69109434,1.59043093,-3.84509847,1.41928190e-04,5.74091832,-3.33745306,-1,-0.9998836312318766
6.03797293e+02,2.79999971,-4.39106921e-10,2.89441009,3.69142793,1.58702633,-3.84509847,1.42044355e-04,5.74422746,-3.32754080,-1,-0.9998678891822432
6.32643724e+02,2.79999969,-4.29847377e-10,2.88880109,3.69177403,1.58352965,-3.84509847,1.42114366e-04,5.74762644,-3.31736096,-1,-0.9998513766807388
6.62833095e+02,2.79999968,-4.20957773e-10,2.88304098,3.69212559,1.57994646,-3.84509847,1.42308553e-04,5.75110999,-3.30692620,-1,-0.9998340954429297
6.94472745e+02,2.79999967,-4.11900825e-10,2.87721155,3.69250511,1.57627271,-3.84509847,1.42526022e-04,5.75468204,-3.29622627,-1,-0.9998159840249791
7.27582718e+02,2.79999965,-4.02628625e-10,2.87116278,3.69287379,1.57251096,-3.84509847,1.42606631e-04,5.75834044,-3.28526616,-1,-0.9997970309531423
7.62307488e+02,2.79999964,-3.93564990e-10,2.86496791,3.69325157,1.56865796,-3.84509847,1.42763723e-04,5.76208797,-3.27404053,-1,-0.9997771535264733
7.98580288e+02,2.79999963,-3.84427552e-10,2.85863565,3.69363694,1.56472110,-3.84509847,1.42892221e-04,5.76591731,-3.26256972,-1,-0.9997563899642645
8.36698422e+02,2.79999961,-3.75253795e-10,2.85214651,3.69403074,1.56068894,-3.84509847,1.42997452e-04,5.76983991,-3.25082081,-1,-0.9997345700814159
8.76511217e+02,2.79999960,-3.66086873e-10,2.84551994,3.69443179,1.55657354,-3.84509847,1.43093499e-04,5.77384307,-3.23882765,-1,-0.9997117801273542
9.18235198e+02,2.79999958,-3.56947069e-10,2.83874505,3.69484059,1.55236850,-3.84509847,1.43181379e-04,5.77793411,-3.22657207,-1,-0.9996878961571315
9.61971297e+02,2.79999957,-3.47819049e-10,2.83182259,3.69525714,1.54807416,-3.84509847,1.43250151e-04,5.78211184,-3.21405315,-1,-0.9996628603944565
1.00772495e+03,2.79999955,-3.38757055e-10,2.82484652,3.69570357,1.54369327,-3.84509847,1.43398966e-04,5.78637411,-3.20128080,-1,-0.9996366697276112
1.05560119e+03,2.79999954,-3.29804726e-10,2.81764737,3.69613661,1.53922762,-3.84509847,1.43488954e-04,5.79071935,-3.18825968,-1,-0.9996092640327775
1.10575907e+03,2.79999952,-3.20949809e-10,2.81030920,3.69657798,1.53467579,-3.84509847,1.43588198e-04,5.79514892,-3.17498460,-1,-0.9995805522635829
1.15833189e+03,2.79999950,-3.12134179e-10,2.80282731,3.69702667,1.53003746,-3.84509847,1.43660882e-04,5.79966373,-3.16145495,-1,-0.9995504581153903
1.21335417e+03,2.79999949,-3.03362605e-10,2.79520827,3.69748249,1.52531632,-3.84509847,1.43706453e-04,5.80426008,-3.14767851,-1,-0.9995189618279889
1.27095218e+03,2.79999947,-2.94695345e-10,2.78744402,3.69794325,1.52051267,-3.84509847,1.43740962e-04,5.80893803,-3.13365813,-1,-0.9994859911209099
1.33126449e+03,2.79999945,-2.86198171e-10,2.77965837,3.69844035,1.51562563,-3.84509847,1.43902473e-04,5.81369791,-3.11939241,-1,-0.9994514666728209
1.39439786e+03,2.79999943,-2.77780803e-10,2.77163738,3.69891845,1.51065894,-3.84509847,1.43950414e-04,5.81853625,-3.10489178,-1,-0.999415327371321
1.46049632e+03,2.79999942,-2.69506065e-10,2.76348874,3.69940403,1.50561347,-3.84509847,1.44005561e-04,5.82345177,-3.09016176,-1,-0.9993774907696218
1.52969238e+03,2.79999940,-2.61316051e-10,2.75520813,3.69989544,1.50049034,-3.84509847,1.44027764e-04,5.82844307,-3.07520299,-1,-0.9993378810153041
1.60213169e+03,2.79999938,-2.53288932e-10,2.74679052,3.70039051,1.49529139,-3.84509847,1.44049157e-04,5.83350872,-3.06002002,-1,-0.9992964147342465
1.67795196e+03,2.79999936,-2.45311435e-10,2.73825181,3.70089275,1.49001755,-3.84509847,1.44013979e-04,5.83864770,-3.04461450,-1,-0.9992530130974047
1.75731401e+03,2.79999934,-2.37562636e-10,2.72958625,3.70139989,1.48467051,-3.84509847,1.44015714e-04,5.84385913,-3.02898907,-1,-0.9992075840469263
1.84043259e+03,2.79999932,-2.29922608e-10,2.72084490,3.70192490,1.47924981,-3.84509847,1.44025330e-04,5.84914329,-3.01314913,-1,-0.9991600046539227
1.92749487e+03,2.79999930,-2.22446346e-10,2.71193892,3.70244439,1.47375783,-3.84509847,1.43992297e-04,5.85449774,-2.99709892,-1,-0.9991101677770668
2.01860412e+03,2.79999928,-2.15110269e-10,2.70291092,3.70296759,1.46819742,-3.84509847,1.43934915e-04,5.85992034,-2.98084540,-1,-0.9990580143017307
2.11393231e+03,2.79999926,-2.07873147e-10,2.69377509,3.70349746,1.46256979,-3.84509847,1.43832160e-04,5.86540851,-2.96439326,-1,-0.9990034457874909
2.21365877e+03,2.79999924,-2.00866297e-10,2.68451315,3.70402808,1.45687758,-3.84509847,1.43753142e-04,5.87096021,-2.94774895,-1,-0.9989463595808546
2.31819616e+03,2.79999922,-1.93996542e-10,2.67513546,3.70456262,1.45111965,-3.84509847,1.43636033e-04,5.87657684,-2.93090877,-1,-0.9988865194637309
2.42759335e+03,2.79999920,-1.87279825e-10,2.66571046,3.70511654,1.44529930,-3.84509847,1.43548824e-04,5.88225498,-2.91388249,-1,-0.9988238974615685
2.54199278e+03,2.79999918,-1.80692191e-10,2.65619051,3.70567535,1.43942172,-3.84509847,1.43424493e-04,5.88790590,-2.89683587,-1,-0.9987584120377397
2.66189251e+03,2.79999916,-1.74289232e-10,2.64650120,3.70622189,1.43348396,-3.84509847,1.43239280e-04,5.89365584,-2.87954161,-1,-0.9986897780888118
2.78726085e+03,2.79999914,-1.68089709e-10,2.63672712,3.70677615,1.42748842,-3.84509847,1.43088549e-04,5.89950090,-2.86200677,-1,-0.9986180137550243
2.91858457e+03,2.79999912,-1.62037423e-10,2.62687955,3.70734082,1.42143529,-3.84509847,1.42928848e-04,5.90540706,-2.84429772,-1,-0.9985428403956556
3.05593254e+03,2.79999910,-1.56139463e-10,2.61689951,3.70789916,1.41532858,-3.84509847,1.42713276e-04,5.91137069,-2.82641877,-1,-0.9984642185875969
3.19980397e+03,2.79999907,-1.50430234e-10,2.60683195,3.70846217,1.40916878,-3.84509847,1.42509240e-04,5.91738657,-2.80838038,-1,-0.9983818625691238
3.35023182e+03,2.79999905,-1.44865571e-10,2.59667507,3.70902796,1.40295877,-3.84509847,1.42275998e-04,5.92345178,-2.79019037,-1,-0.9982957534730129
3.50787761e+03,2.79999903,-1.39464087e-10,2.58642828,3.70959638,1.39669854,-3.84509847,1.42021889e-04,5.92956731,-2.77185106,-1,-0.9982055126267694
3.67269853e+03,2.79999901,-1.34218325e-10,2.57615003,3.71018060,1.39039096,-3.84509847,1.41797467e-04,5.93573117,-2.75336589,-1,-0.9981111645360311
3.84532703e+03,2.79999898,-1.29108601e-10,2.56572517,3.71075112,1.38403750,-3.84509847,1.41473578e-04,5.94194077,-2.73474600,-1,-0.9980123471687817
4.02599893e+03,2.79999896,-1.24216515e-10,2.55523688,3.71132753,1.37764054,-3.84509847,1.41215163e-04,5.94819461,-2.71598978,-1,-0.9979089255350774
4.21494395e+03,2.79999894,-1.19450406e-10,2.54467378,3.71190614,1.37120177,-3.84509847,1.40914193e-04,5.95449099,-2.69710727,-1,-0.997800768136784
4.41289412e+03,2.79999892,-1.14841363e-10,2.53403439,3.71248681,1.36472074,-3.84509847,1.40600259e-04,5.96082931,-2.67809928,-1,-0.9976874559395167
4.62004282e+03,2.79999889,-1.10383302e-10,2.52337429,3.71308276,1.35819877,-3.84509847,1.40317347e-04,5.96720834,-2.65896758,-1,-0.9975688782471709
4.83668983e+03,2.79999887,-1.06057046e-10,2.51259661,3.71366787,1.35163972,-3.84509847,1.39964966e-04,5.97362472,-2.63972278,-1,-0.9974448634573149
5.06354642e+03,2.79999885,-1.01890176e-10,2.50172994,3.71424894,1.34504425,-3.84509847,1.39597351e-04,5.98007859,-2.62036697,-1,-0.9973150044191667
5.30107519e+03,2.79999882,-9.78557908e-11,2.49088884,3.71485538,1.33841082,-3.84509847,1.39277894e-04,5.98657154,-2.60089530,-1,-0.9971790363275863
5.54954044e+03,2.79999880,-9.39824853e-11,2.47992343,3.71544693,1.33174500,-3.84509847,1.38929044e-04,5.99309804,-2.58132483,-1,-0.9970368078898837
5.80945587e+03,2.79999878,-9.02200910e-11,2.46888934,3.71603732,1.32504718,-3.84509847,1.38526977e-04,5.99965670,-2.56165388,-1,-0.9968880250498539
6.08168789e+03,2.79999875,-8.65818960e-11,2.45779967,3.71662961,1.31831777,-3.84509847,1.38097106e-04,6.00624703,-2.54188568,-1,-0.9967321918502526
6.36661604e+03,2.79999873,-8.30930299e-11,2.44665118,3.71722184,1.31155906,-3.84509847,1.37684051e-04,6.01286678,-2.52203043,-1,-0.9965690910318
6.66473187e+03,2.79999870,-7.97213023e-11,2.43544644,3.71781441,1.30477156,-3.84509847,1.37243447e-04,6.01951578,-2.50208628,-1,-0.9963984412175692
6.97668265e+03,2.79999868,-7.64700850e-11,2.42421504,3.71841421,1.29795625,-3.84509847,1.36807094e-04,6.02619341,-2.48205753,-1,-0.9962198718921624
7.30308894e+03,2.79999865,-7.33416955e-11,2.41290756,3.71900779,1.29111536,-3.84509847,1.36346585e-04,6.03289822,-2.46194546,-1,-0.996033027829731
7.64485023e+03,2.79999863,-7.03289468e-11,2.40155516,3.71960253,1.28424966,-3.84509847,1.35872058e-04,6.03962925,-2.44175631,-1,-0.9958373941371164
8.00257709e+03,2.79999861,-6.74258201e-11,2.39014489,3.72019401,1.27736158,-3.84509847,1.35368175e-04,6.04638315,-2.42149998,-1,-0.9956326213070241
8.37693717e+03,2.79999858,-6.46484160e-11,2.37869773,3.72078640,1.27045321,-3.84509847,1.34888014e-04,6.05315720,-2.40118027,-1,-0.9954183271579765
8.76870710e+03,2.79999856,-6.19658782e-11,2.36724623,3.72138780,1.26352466,-3.84509847,1.34401101e-04,6.05995252,-2.38079513,-1,-0.9951940671253048
9.17866958e+03,2.79999853,-5.93897251e-11,2.35574920,3.72198649,1.25657876,-3.84509847,1.33899850e-04,6.06676643,-2.36035615,-1,-0.9949593931697029
9.60766199e+03,2.79999851,-5.69132069e-11,2.34420679,3.72258200,1.24961655,-3.84509847,1.33381456e-04,6.07359807,-2.33986619,-1,-0.994713825951508
1.00566416e+04,2.79999848,-5.45292625e-11,2.33263972,3.72317935,1.24263831,-3.84509847,1.32846934e-04,6.08044753,-2.31932121,-1,-0.9944568175026781
1.05267735e+04,2.79999846,-5.22468196e-11,2.32102310,3.72376975,1.23564921,-3.84509847,1.32298840e-04,6.08730924,-2.29874130,-1,-0.9941877008932078
1.10188067e+04,2.79999843,-5.00522002e-11,2.30938250,3.72435855,1.22865130,-3.84509847,1.31729102e-04,6.09418044,-2.27813347,-1,-0.9939060473688867
1.15337805e+04,2.79999841,-4.79470764e-11,2.29774463,3.72495063,1.22164820,-3.84509847,1.31163863e-04,6.10105694,-2.25750536,-1,-0.993611262005413
1.20727270e+04,2.79999838,-4.59285293e-11,2.28607219,3.72553452,1.21464420,-3.84509847,1.30569648e-04,6.10793482,-2.23687030,-1,-0.9933027539999664
1.26368546e+04,2.79999836,-4.39954643e-11,2.27441486,3.72612027,1.20764404,-3.84509847,1.29980252e-04,6.11481023,-2.21624353,-1,-0.9929798316306896
1.32273933e+04,2.79999833,-4.21472404e-11,2.26279726,3.72671211,1.20065156,-3.84509847,1.29412801e-04,6.12167984,-2.19563481,-1,-0.9926417908112835
1.38454919e+04,2.79999831,-4.03816039e-11,2.25115989,3.72728990,1.19367730,-3.84509847,1.28814211e-04,6.12853341,-2.17507494,-1,-0.992287973936593
1.44925643e+04,2.79999828,-3.86766367e-11,2.23954262,3.72785984,1.18672878,-3.84509847,1.28137876e-04,6.13536322,-2.15458655,-1,-0.9919175716508306
1.51700130e+04,2.79999826,-3.70763427e-11,2.22797839,3.72842424,1.17981786,-3.84509847,1.27541105e-04,6.14215680,-2.13420446,-1,-0.9915297811238869
1.58795455e+04,2.79999823,-3.55423757e-11,2.21649288,3.72898271,1.17295817,-3.84509847,1.26904413e-04,6.14890062,-2.11397248,-1,-0.9911236249351472
1.66229816e+04,2.79999820,-3.40830554e-11,2.20516619,3.72954844,1.16616337,-3.84509847,1.26295932e-04,6.15558193,-2.09392744,-1,-0.9906980613803452
1.74015840e+04,2.79999818,-3.27063892e-11,2.19391897,3.73009017,1.15945630,-3.84509847,1.25671722e-04,6.16217914,-2.07413496,-1,-0.9902523676547899
1.82171841e+04,2.79999815,-3.14008542e-11,2.18284002,3.73061942,1.15285832,-3.84509847,1.25027265e-04,6.16867063,-2.05466372,-1,-0.9897854954140515
1.90716172e+04,2.79999813,-3.01651104e-11,2.17197868,3.73113577,1.14639495,-3.84509847,1.24363364e-04,6.17503110,-2.03558725,-1,-0.9892963940812315
1.99673142e+04,2.79999810,-2.90156141e-11,2.16140565,3.73164154,1.14009690,-3.84509847,1.23757179e-04,6.18122910,-2.01699598,-1,-0.988783672141383
2.09071414e+04,2.79999807,-2.79421599e-11,2.15114655,3.73212534,1.13399975,-3.84509847,1.23143693e-04,6.18722997,-1.99899291,-1,-0.9882456888444573
2.18916317e+04,2.79999805,-2.69422060e-11,2.14125491,3.73258925,1.12812610,-3.84509847,1.22536707e-04,6.19301131,-1.98164872,-1,-0.9876821391436342
2.29256035e+04,2.79999802,-2.60207131e-11,2.13180530,3.73303047,1.12251887,-3.84509847,1.21949459e-04,6.19853100,-1.96508957,-1,-0.9870902648523898
2.40088275e+04,2.79999799,-2.51721528e-11,2.12282048,3.73345080,1.11718578,-3.84509847,1.21390800e-04,6.20378151,-1.94933741,-1,-0.9864701972284383
2.51467655e+04,2.79999796,-2.43968014e-11,2.11434821,3.73384620,1.11215886,-3.84509847,1.20856396e-04,6.20873137,-1.93448544,-1,-0.985818809785154
2.63405731e+04,2.79999794,-2.36920158e-11,2.10637309,3.73421518,1.10743334,-3.84509847,1.20360493e-04,6.21338531,-1.92052287,-1,-0.9851354410248725
2.75926645e+04,2.79999791,-2.30477784e-11,2.09887914,3.73456109,1.10299454,-3.84509847,1.19890763e-04,6.21775727,-1.90740574,-1,-0.9844187089921921
2.89057475e+04,2.79999788,-2.24571083e-11,2.09181348,3.73488538,1.09881314,-3.84509847,1.19446652e-04,6.22187642,-1.89504945,-1,-0.9836670636668844
3.02820777e+04,2.79999785,-2.19108043e-11,2.08510487,3.73519348,1.09484262,-3.84509847,1.19029647e-04,6.22578803,-1.88331571,-1,-0.9828792138806105
3.17248216e+04,2.79999782,-2.14027240e-11,2.07866394,3.73549127,1.09102659,-3.84509847,1.18658706e-04,6.22954789,-1.87203678,-1,-0.9820533470404706
3.32398476e+04,2.79999778,-2.09184129e-11,2.07236656,3.73578407,1.08729229,-3.84509847,1.18304204e-04,6.23322727,-1.86099724,-1,-0.9811861039106612
3.48244108e+04,2.79999775,-2.04481671e-11,2.06604954,3.73607230,1.08355733,-3.84509847,1.17960518e-04,6.23690792,-1.84995420,-1,-0.9802790557484851
3.64829369e+04,2.79999772,-1.99795770e-11,2.05959657,3.73636613,1.07974317,-3.84509847,1.17613449e-04,6.24066683,-1.83867658,-1,-0.9793296691598491
3.82227181e+04,2.79999768,-1.95007388e-11,2.05283323,3.73667360,1.07574657,-3.84509847,1.17250255e-04,6.24460593,-1.82686112,-1,-0.9783337698861259
4.00396276e+04,2.79999765,-1.90023505e-11,2.04563275,3.73700038,1.07149277,-3.84509847,1.16857699e-04,6.24879891,-1.81428423,-1,-0.9772937202227138
4.19385398e+04,2.79999761,-1.84741399e-11,2.03784908,3.73736004,1.06688162,-3.84509847,1.16433155e-04,6.25334463,-1.80064942,-1,-0.9762067299271271
4.39240871e+04,2.79999758,-1.79009163e-11,2.02925182,3.73775281,1.06179745,-3.84509847,1.15902449e-04,6.25835666,-1.78561459,-1,-0.9750701472844286
4.59972556e+04,2.79999754,-1.72906959e-11,2.01965019,3.73818582,1.05613062,-3.84509847,1.15351931e-04,6.26394396,-1.76885164,-1,-0.9738834078234804
4.81571873e+04,2.79999751,-1.66259207e-11,2.00891324,3.73866828,1.04979722,-3.84509847,1.14684354e-04,6.27018933,-1.75011163,-1,-0.9726470026874082
5.04035573e+04,2.79999747,-1.59101711e-11,1.99692928,3.73920598,1.04272982,-3.84509847,1.13914756e-04,6.27716035,-1.72919528,-1,-0.9713611178580323
5.27315261e+04,2.79999743,-1.51526643e-11,1.98360239,3.73982889,1.03482057,-3.84509847,1.13155320e-04,6.28390874,-1.70201328,-1,-0.9700285236001047
5.51334266e+04,2.79999740,-1.43468484e-11,1.96938284,3.74053994,1.02628870,-3.84509847,1.12198635e-04,6.28797327,-1.66321653,-1,-0.9686536087754674
5.76478655e+04,2.79999736,-1.36082226e-11,1.95526034,3.74126432,1.01777867,-3.84509847,1.11464867e-04,6.29311802,-1.62520873,-1,-0.9672142738324692
6.02811596e+04,2.79999733,-1.29245170e-11,1.94131715,3.74198310,1.00936952,-3.84509847,1.10822280e-04,6.29909577,-1.58808719,-1,-0.9657069028586422
6.30396950e+04,2.79999729,-1.22847425e-11,1.92762203,3.74270238,1.00108342,-3.84509847,1.10215433e-04,6.30553125,-1.55180297,-1,-0.9641278402722666
6.59290668e+04,2.79999726,-1.16874253e-11,1.91417190,3.74341563,9.92931836e-01,-3.84509847,1.09639817e-04,6.31231611,-1.51608633,-1,-0.9624738832820794
6.89568640e+04,2.79999723,-1.11285827e-11,1.90098951,3.74412506,9.84921790e-01,-3.84509847,1.09087040e-04,6.31936314,-1.48075537,-1,-0.9607406877328568
7.21280871e+04,2.79999719,-1.06078837e-11,1.88812927,3.74484350,9.77054796e-01,-3.84509847,1.08610034e-04,6.32660765,-1.44569161,-1,-0.9589253911989568
7.54486337e+04,2.79999716,-1.01224057e-11,1.87554472,3.74555431,9.69340893e-01,-3.84509847,1.08169257e-04,6.33401653,-1.41082070,-1,-0.9570246177296815
7.89284772e+04,2.79999712,-9.66932934e-12,1.86329237,3.74626667,9.61790005e-01,-3.84509847,1.07773430e-04,6.34156047,-1.37607246,-1,-0.9550326582727564
8.25737439e+04,2.79999709,-9.24618360e-12,1.85138702,3.74698129,9.54408082e-01,-3.84509847,1.07422613e-04,6.34921848,-1.34137546,-1,-0.9529460059632261
8.63909574e+04,2.79999705,-8.85422333e-12,1.83985021,3.74769987,9.47202522e-01,-3.84509847,1.07159711e-04,6.35699278,-1.30668609,-1,-0.9507609265105361
9.03935155e+04,2.79999702,-8.48965547e-12,1.82872136,3.74842430,9.40189226e-01,-3.84509848,1.06959189e-04,6.36487516,-1.27195145,-1,-0.9484697506403607
9.45841900e+04,2.79999699,-8.15121675e-12,1.81803730,3.74916118,9.33373445e-01,-3.84509848,1.06847939e-04,6.37286401,-1.23712916,-1,-0.9460708916970864
9.89790179e+04,2.79999695,-7.83914140e-12,1.80782117,3.74990567,9.26776399e-01,-3.84509848,1.06830474e-04,6.38096993,-1.20217137,-1,-0.943555169654712
1.03580479e+05,2.79999692,-7.55071685e-12,1.79810365,3.75066076,9.20407454e-01,-3.84509848,1.06905946e-04,6.38919667,-1.16703795,-1,-0.9409211650065669
1.08407328e+05,2.79999688,-7.28634391e-12,1.78895649,3.75142998,9.14295436e-01,-3.84509848,1.07095613e-04,6.39754679,-1.13166936,-1,-0.9381581420393847
1.13463078e+05,2.79999684,-7.04616503e-12,1.78042588,3.75221719,9.08455710e-01,-3.84509848,1.07435478e-04,6.40604187,-1.09603190,-1,-0.9352640897567609
1.18763097e+05,2.79999681,-6.82853571e-12,1.77259330,3.75302587,9.02922065e-01,-3.84509848,1.07920725e-04,6.41469584,-1.06008251,-1,-0.9322302110869494
1.24320116e+05,2.79999677,-6.63428544e-12,1.76556497,3.75386468,8.97730278e-01,-3.84509848,1.08595420e-04,6.42352232,-1.02376526,-1,-0.9290492184505384
1.30142814e+05,2.79999673,-6.46346480e-12,1.75940364,3.75472984,8.92919303e-01,-3.84509848,1.09468471e-04,6.43253469,-9.87048307e-01,-1,-0.9257161437459092
1.36244290e+05,2.79999669,-6.31711687e-12,1.75426598,3.75563443,8.88541290e-01,-3.84509848,1.10594644e-04,6.44176031,-9.49887433e-01,-1,-0.922223488740188
1.42640458e+05,2.79999665,-6.19692056e-12,1.75032478,3.75658700,8.84665546e-01,-3.84509848,1.12023789e-04,6.45122648,-9.12230427e-01,-1,-0.9185621438160034
1.49341671e+05,2.79999661,-6.10493409e-12,1.74773033,3.75758606,8.81370199e-01,-3.84509849,1.13796629e-04,6.46095573,-8.74024785e-01,-1,-0.914726182627456
