star_age,star_mass,star_mdot,log_L,log_Teff,log_R,log_surf_z,v_wind_Km_per_s,log_center_T,log_center_Rho,phase,x
2.63521349e+02,4.19999972,-9.03028366e-10,3.18339016,3.66376873,1.78683477,-3.84509849,5.23161608e-05,5.71469236,-3.75235213,-1,-1.0
2.75649808e+02,4.19999971,-8.91758384e-10,3.17996408,3.66392202,1.78481515,-3.84509849,5.22314097e-05,5.71667083,-3.74642173,-1,-0.9999823344570942
2.88296144e+02,4.19999970,-8.80289057e-10,3.17641915,3.66407612,1.78273449,-3.84509849,5.21401036e-05,5.71870910,-3.74031371,-1,-0.9999639146074489
3.01501706e+02,4.19999969,-8.68680192e-10,3.17286432,3.66426032,1.78058867,-3.84509849,5.20781421e-05,5.72081123,-3.73401511,-1,-0.9999446802247374
3.10262401e+02,4.19999968,-8.59871341e-10,3.18805698,3.66892216,1.77886132,-3.84509849,6.91633085e-05,5.72225129,-3.72970882,-1,-0.9999319199529332
3.13635740e+02,4.19999968,-8.54325724e-10,3.22467028,3.67868222,1.77764784,-3.84509849,1.05833536e-04,5.72289962,-3.72778431,-1,-0.9999270065616408
3.18623384e+02,4.19999968,-9.07775538e-10,3.25536821,3.68707969,1.77620187,-3.84509848,1.47066771e-04,5.72385477,-3.72493871,-1,-0.9999197418762359
3.33185958e+02,4.19999966,-1.01522432e-09,3.25138719,3.68749083,1.77338908,-3.84509847,1.67890861e-04,5.72661215,-3.71667847,-1,-0.9998985309560509
3.48423863e+02,4.19999965,-1.00075785e-09,3.24680091,3.68778688,1.77050386,-3.84509847,1.68567464e-04,5.72944427,-3.70819193,-1,-0.9998763363916324
3.64346626e+02,4.19999963,-9.85867878e-10,3.24209225,3.68808932,1.76754464,-3.84509847,1.69210997e-04,5.73234930,-3.69948645,-1,-0.9998531443065576
3.81009633e+02,4.19999961,-9.69799162e-10,3.23725761,3.68839954,1.76450688,-3.84509847,1.69693371e-04,5.73533122,-3.69054936,-1,-0.999828874029097
3.98388504e+02,4.19999960,-9.52662677e-10,3.23230294,3.68871717,1.76139427,-3.84509847,1.70021047e-04,5.73838649,-3.68139340,-1,-0.9998035610696102
4.16527835e+02,4.19999958,-9.34979402e-10,3.22722447,3.68904253,1.75820434,-3.84509847,1.70277707e-04,5.74151792,-3.67200793,-1,-0.9997771404723964
4.35581281e+02,4.19999956,-9.16981716e-10,3.22200414,3.68937727,1.75492468,-3.84509847,1.70503207e-04,5.74473737,-3.66235666,-1,-0.9997493884333437
4.55451728e+02,4.19999955,-8.98791475e-10,3.21666925,3.68972200,1.75156777,-3.84509847,1.70722449e-04,5.74803281,-3.65247855,-1,-0.9997204464025353
4.76163042e+02,4.19999953,-8.80509715e-10,3.21120295,3.69007212,1.74813438,-3.84509847,1.70928461e-04,5.75140317,-3.64237554,-1,-0.9996902796182717
4.97917445e+02,4.19999951,-8.62263299e-10,3.20558493,3.69042968,1.74461026,-3.84509847,1.71147040e-04,5.75486274,-3.63200623,-1,-0.9996585935368342
5.20590712e+02,4.19999949,-8.43930546e-10,3.19985353,3.69079715,1.74100961,-3.84509847,1.71367846e-04,5.75839728,-3.62141128,-1,-0.9996255690964659
5.44296214e+02,4.19999947,-8.25430622e-10,3.19398186,3.69117102,1.73732605,-3.84509847,1.71548299e-04,5.76201332,-3.61057208,-1,-0.9995910411681707
5.69086629e+02,4.19999945,-8.07086262e-10,3.18796560,3.69155017,1.73355962,-3.84509847,1.71749526e-04,5.76571079,-3.59948787,-1,-0.9995549330245198
5.94977835e+02,4.19999943,-7.88817356e-10,3.18183103,3.69193989,1.72971289,-3.84509847,1.71974532e-04,5.76948692,-3.58816739,-1,-0.9995172215386273
6.22049385e+02,4.19999941,-7.70541485e-10,3.17558735,3.69234390,1.72578303,-3.84509847,1.72216884e-04,5.77334487,-3.57660275,-1,-0.9994777908386471
6.50348464e+02,4.19999939,-7.52248966e-10,3.16917385,3.69274613,1.72177182,-3.84509847,1.72400551e-04,5.77728277,-3.56479774,-1,-0.9994365721979056
6.79867851e+02,4.19999936,-7.34105245e-10,3.16264033,3.69315704,1.71768325,-3.84509847,1.72605241e-04,5.78129672,-3.55276370,-1,-0.9993935761340527
7.10808829e+02,4.19999934,-7.15866761e-10,3.15596834,3.69357634,1.71350864,-3.84509847,1.72761725e-04,5.78539506,-3.54047525,-1,-0.9993485094710572
7.43090886e+02,4.19999932,-6.97979042e-10,3.14923712,3.69401952,1.70925667,-3.84509847,1.73046946e-04,5.78956925,-3.52796146,-1,-0.9993014894775839
7.76777691e+02,4.19999930,-6.80177970e-10,3.14231088,3.69445206,1.70492847,-3.84509847,1.73244396e-04,5.79381864,-3.51522078,-1,-0.9992524234174119
8.12084406e+02,4.19999927,-6.62548396e-10,3.13526294,3.69489581,1.70051701,-3.84509847,1.73457384e-04,5.79814990,-3.50223578,-1,-0.9992009978992406
8.48940056e+02,4.19999925,-6.44981990e-10,3.12809287,3.69534685,1.69602989,-3.84509847,1.73643537e-04,5.80255561,-3.48902509,-1,-0.9991473163007459
8.87426318e+02,4.19999922,-6.27571396e-10,3.12078839,3.69580215,1.69146704,-3.84509847,1.73808006e-04,5.80703626,-3.47558945,-1,-0.9990912596563986
9.27624004e+02,4.19999920,-6.10400690e-10,3.11335750,3.69626328,1.68682934,-3.84509847,1.73977583e-04,5.81159050,-3.46193425,-1,-0.9990327102605728
9.69623468e+02,4.19999918,-5.93255194e-10,3.10577356,3.69672363,1.68211667,-3.84509847,1.74057573e-04,5.81621829,-3.44805815,-1,-0.9989715365093722
1.01356220e+03,4.19999915,-5.76356608e-10,3.09819348,3.69722377,1.67732636,-3.84509847,1.74277136e-04,5.82092217,-3.43395532,-1,-0.9989075381435969
1.05945763e+03,4.19999912,-5.59994678e-10,3.09040385,3.69770746,1.67246415,-3.84509847,1.74486609e-04,5.82569683,-3.41963893,-1,-0.9988406897758162
1.10741055e+03,4.19999910,-5.43781043e-10,3.08250728,3.69819990,1.66753100,-3.84509847,1.74673133e-04,5.83054155,-3.40511303,-1,-0.9987708445988057
1.15750437e+03,4.19999907,-5.27711309e-10,3.07449725,3.69869908,1.66252762,-3.84509847,1.74817521e-04,5.83545538,-3.39037865,-1,-0.9986978811228583
1.20983835e+03,4.19999904,-5.11953538e-10,3.06636662,3.69920236,1.65745575,-3.84509847,1.74963917e-04,5.84043712,-3.37543961,-1,-0.9986216547721635
1.26450222e+03,4.19999902,-4.96305439e-10,3.05811436,3.69970899,1.65231636,-3.84509847,1.75033832e-04,5.84548602,-3.36029998,-1,-0.9985420348517035
1.32160928e+03,4.19999899,-4.81129731e-10,3.04975350,3.70022150,1.64711091,-3.84509847,1.75163708e-04,5.85059984,-3.34496493,-1,-0.9984588563358958
1.38129074e+03,4.19999896,-4.66158120e-10,3.04135992,3.70075912,1.64183886,-3.84509847,1.75335555e-04,5.85577937,-3.32943310,-1,-0.9983719281125897
1.44367044e+03,4.19999893,-4.51455131e-10,3.03278552,3.70128388,1.63650215,-3.84509847,1.75409147e-04,5.86102268,-3.31371057,-1,-0.9982810698043082
1.50882886e+03,4.19999890,-4.37139506e-10,3.02410843,3.70181387,1.63110363,-3.84509847,1.75507093e-04,5.86632720,-3.29780187,-1,-0.9981861641889959
1.57688241e+03,4.19999887,-4.23006222e-10,3.01531294,3.70234439,1.62564485,-3.84509847,1.75527097e-04,5.87169099,-3.28171612,-1,-0.9980870417112419
1.64795980e+03,4.19999885,-4.09229111e-10,3.00643240,3.70288321,1.62012693,-3.84509847,1.75570525e-04,5.87711319,-3.26545601,-1,-0.9979835149002366
1.72218344e+03,4.19999882,-3.95749338e-10,2.99746242,3.70342836,1.61455164,-3.84509847,1.75604680e-04,5.88259169,-3.24902597,-1,-0.9978754054613503
1.79975242e+03,4.19999879,-3.82536681e-10,2.98838645,3.70397571,1.60891896,-3.84509847,1.75594359e-04,5.88812700,-3.23242540,-1,-0.9977624234127365
1.88084253e+03,4.19999876,-3.69719622e-10,2.97925838,3.70453877,1.60322879,-3.84509847,1.75652339e-04,5.89371954,-3.21565128,-1,-0.9976443127098482
1.96549414e+03,4.19999872,-3.57108454e-10,2.97004211,3.70510645,1.59748531,-3.84509847,1.75649937e-04,5.89936468,-3.19872159,-1,-0.9975210145523081
2.05384545e+03,4.19999869,-3.44951344e-10,2.96068971,3.70566540,1.59169120,-3.84509847,1.75652194e-04,5.90506029,-3.18164003,-1,-0.9973923276467754
2.14630484e+03,4.19999866,-3.32413951e-10,2.95131403,3.70624604,1.58584208,-3.84509847,1.75343002e-04,5.91070756,-3.16458326,-1,-0.9972576571728851
2.24278613e+03,4.19999863,-3.20494644e-10,2.94179029,3.70681641,1.57993948,-3.84509847,1.75113206e-04,5.91650617,-3.14718761,-1,-0.9971171286549504
2.34357454e+03,4.19999860,-3.09460634e-10,2.93220271,3.70739426,1.57398998,-3.84509847,1.75195100e-04,5.92235063,-3.12965106,-1,-0.996970326659638
2.44881437e+03,4.19999857,-2.98741250e-10,2.92249682,3.70796425,1.56799706,-3.84509847,1.75227285e-04,5.92823953,-3.11198409,-1,-0.9968170410087351
2.55886840e+03,4.19999854,-2.88395711e-10,2.91273095,3.70854053,1.56196156,-3.84509847,1.75301368e-04,5.93417470,-3.09418276,-1,-0.9966567432999395
2.67371829e+03,4.19999850,-2.78090281e-10,2.90297812,3.70914200,1.55588221,-3.84509847,1.75300291e-04,5.94015310,-3.07625453,-1,-0.99648946024613
2.79375382e+03,4.19999847,-2.68039088e-10,2.89306944,3.70972538,1.54976112,-3.84509847,1.75168692e-04,5.94617225,-3.05820369,-1,-0.99631462411852
2.91907852e+03,4.19999844,-2.58278253e-10,2.88309690,3.71031295,1.54359970,-3.84509847,1.75024247e-04,5.95223210,-3.04002720,-1,-0.9961320841218884
3.05000092e+03,4.19999841,-2.48748048e-10,2.87303669,3.71089833,1.53739883,-3.84509847,1.74800301e-04,5.95831609,-3.02171265,-1,-0.9959413908710367
3.18673770e+03,4.19999837,-2.39584299e-10,2.86291416,3.71148732,1.53115959,-3.84509847,1.74619223e-04,5.96436884,-3.00319994,-1,-0.9957422287636418
3.32958511e+03,4.19999834,-2.30623781e-10,2.85274728,3.71208327,1.52488425,-3.84509847,1.74374818e-04,5.97041735,-2.98452383,-1,-0.9955341663007734
3.47872313e+03,4.19999831,-2.22045495e-10,2.84248732,3.71267238,1.51857604,-3.84509847,1.74159364e-04,5.97644207,-2.96566725,-1,-0.9953169413349969
3.63460077e+03,4.19999827,-2.13694410e-10,2.83220203,3.71327174,1.51223469,-3.84509847,1.73917570e-04,5.98244674,-2.94662375,-1,-0.99508989986687
3.79726831e+03,4.19999824,-2.05610625e-10,2.82189697,3.71388205,1.50586153,-3.84509847,1.73697419e-04,5.98843593,-2.92739164,-1,-0.994852968661739
3.96736175e+03,4.19999820,-1.97835956e-10,2.81147577,3.71447741,1.49946022,-3.84509847,1.73427681e-04,5.99440793,-2.90797559,-1,-0.9946052213624064
4.14481612e+03,4.19999817,-1.90285092e-10,2.80102011,3.71507703,1.49303315,-3.84509847,1.73127337e-04,6.00036210,-2.88838099,-1,-0.9943467526000469
4.33032154e+03,4.19999814,-1.82991228e-10,2.79050998,3.71567584,1.48658047,-3.84509847,1.72799073e-04,6.00630144,-2.86859622,-1,-0.9940765571897091
4.52400944e+03,4.19999810,-1.75957673e-10,2.77995060,3.71627282,1.48010681,-3.84509847,1.72454631e-04,6.01222418,-2.84863410,-1,-0.9937944436988043
4.72619284e+03,4.19999807,-1.69143389e-10,2.76935279,3.71687022,1.47361311,-3.84509847,1.72071510e-04,6.01813410,-2.82849027,-1,-0.9934999562022854
4.93761499e+03,4.19999803,-1.62609254e-10,2.75873037,3.71747074,1.46710086,-3.84509847,1.71718484e-04,6.02402551,-2.80815074,-1,-0.9931920121294182
5.15829614e+03,4.19999800,-1.56259169e-10,2.74811786,3.71808248,1.46057113,-3.84509847,1.71339719e-04,6.02991030,-2.78763522,-1,-0.9928705819853391
5.38867662e+03,4.19999796,-1.50170561e-10,2.73744336,3.71868546,1.45402791,-3.84509847,1.70952950e-04,6.03579039,-2.76694877,-1,-0.9925350244133424
5.62957835e+03,4.19999793,-1.44314235e-10,2.72675601,3.71929144,1.44747228,-3.84509847,1.70566402e-04,6.04166329,-2.74607293,-1,-0.9921841422569697
5.88108318e+03,4.19999789,-1.38678094e-10,2.71601019,3.71988684,1.44090856,-3.84509847,1.70135903e-04,6.04752850,-2.72502491,-1,-0.9918178162987105
6.14371183e+03,4.19999786,-1.33257932e-10,2.70526768,3.72048643,1.43433814,-3.84509847,1.69717417e-04,6.05338733,-2.70379920,-1,-0.991435288090892
6.41799533e+03,4.19999782,-1.28038596e-10,2.69458309,3.72110375,1.42776120,-3.84509847,1.69353275e-04,6.05924414,-2.68239393,-1,-0.9910357841689507
6.70465759e+03,4.19999778,-1.23044628e-10,2.68384895,3.72171032,1.42118098,-3.84509847,1.68968180e-04,6.06510517,-2.66081597,-1,-0.9906182501315675
7.00409310e+03,4.19999775,-1.18238583e-10,2.67310002,3.72231279,1.41460159,-3.84509847,1.68557086e-04,6.07096382,-2.63905937,-1,-0.990182111389669
7.31677647e+03,4.19999771,-1.13599096e-10,2.66235523,3.72291538,1.40802401,-3.84509847,1.68112196e-04,6.07682825,-2.61713429,-1,-0.9897266766564793
7.64333599e+03,4.19999768,-1.09149150e-10,2.65161341,3.72351650,1.40145085,-3.84509847,1.67669586e-04,6.08269780,-2.59503791,-1,-0.9892510308046971
7.98439097e+03,4.19999764,-1.04889625e-10,2.64089284,3.72411924,1.39488510,-3.84509847,1.67251582e-04,6.08857952,-2.57278528,-1,-0.9887542717867189
8.34091302e+03,4.19999760,-1.00798547e-10,2.63027061,3.72474291,1.38832664,-3.84509847,1.66899990e-04,6.09447736,-2.55036923,-1,-0.9882349844171412
8.71332636e+03,4.19999757,-9.68915017e-11,2.61959040,3.72534467,1.38178302,-3.84509847,1.66500247e-04,6.10038971,-2.52780759,-1,-0.9876925508040609
9.10231981e+03,4.19999753,-9.31111317e-11,2.60896014,3.72595093,1.37525537,-3.84509847,1.66061067e-04,6.10632108,-2.50510375,-1,-0.9871259676560243
9.50860826e+03,4.19999749,-8.94483903e-11,2.59834020,3.72655074,1.36874576,-3.84509847,1.65531118e-04,6.11227959,-2.48226159,-1,-0.9865341937096714
9.93307988e+03,4.19999746,-8.59891295e-11,2.58776341,3.72714985,1.36225915,-3.84509847,1.65096488e-04,6.11826695,-2.45929699,-1,-0.9859159353130023
1.03765554e+04,4.19999742,-8.26845689e-11,2.57724142,3.72774907,1.35579971,-3.84509847,1.64683415e-04,6.12428815,-2.43622931,-1,-0.9852699970428366
1.08399015e+04,4.19999738,-7.95123399e-11,2.56678861,3.72834989,1.34937167,-3.84509847,1.64266033e-04,6.13034776,-2.41307892,-1,-0.9845951165481431
1.13240302e+04,4.19999735,-7.65009827e-11,2.55640298,3.72894959,1.34297947,-3.84509847,1.63902022e-04,6.13645044,-2.38986368,-1,-0.9838899654385271
1.18299089e+04,4.19999731,-7.36205342e-11,2.54608853,3.72954591,1.33662959,-3.84509847,1.63535174e-04,6.14259807,-2.36661448,-1,-0.9831531346606035
1.23585381e+04,4.19999727,-7.08616365e-11,2.53585582,3.73013903,1.33032701,-3.84509847,1.63155884e-04,6.14880197,-2.34335590,-1,-0.9823831669496302
1.29111433e+04,4.19999723,-6.82992267e-11,2.52571538,3.73072674,1.32408137,-3.84509847,1.62940273e-04,6.15507790,-2.32010478,-1,-0.9815782773201586
1.34887614e+04,4.19999719,-6.58109721e-11,2.51571258,3.73131770,1.31789804,-3.84509847,1.62648302e-04,6.16139388,-2.29694648,-1,-0.9807369554895187
1.40923214e+04,4.19999715,-6.34272046e-11,2.50584610,3.73190975,1.31178071,-3.84509847,1.62351923e-04,6.16774435,-2.27392641,-1,-0.9798578483353263
1.47229245e+04,4.19999712,-6.11409116e-11,2.49606979,3.73248667,1.30573870,-3.84509847,1.61987603e-04,6.17412718,-2.25105152,-1,-0.9789393519196163
1.53829039e+04,4.19999708,-5.89848749e-11,2.48645487,3.73306182,1.29978095,-3.84509847,1.61689177e-04,6.18054743,-2.22827739,-1,-0.9779780678514878
1.60726666e+04,4.19999704,-5.69383001e-11,2.47699156,3.73362929,1.29391435,-3.84509847,1.61402348e-04,6.18693065,-2.20571066,-1,-0.976973403320596
1.67933675e+04,4.19999700,-5.49923012e-11,2.46769605,3.73419010,1.28814498,-3.84509847,1.61120814e-04,6.19325083,-2.18328962,-1,-0.975923676172967
1.75473784e+04,4.19999696,-5.31389849e-11,2.45857707,3.73474266,1.28248038,-3.84509847,1.60820648e-04,6.19952589,-2.16076933,-1,-0.9748254317953923
1.83358176e+04,4.19999691,-5.13978761e-11,2.44967892,3.73529662,1.27692338,-3.84509847,1.60613881e-04,6.20551924,-2.13841486,-1,-0.9736770413431328
1.91596021e+04,4.19999687,-4.97455080e-11,2.44103035,3.73586090,1.27147052,-3.84509847,1.60478430e-04,6.21128030,-2.11591366,-1,-0.972477169172242
2.00217980e+04,4.19999683,-4.81838624e-11,2.43251059,3.73640108,1.26613028,-3.84509847,1.60313015e-04,6.21676779,-2.09313096,-1,-0.9712213493962374
2.09217467e+04,4.19999679,-4.66933599e-11,2.42420937,3.73694485,1.26089214,-3.84509847,1.60175511e-04,6.22200893,-2.06994661,-1,-0.9699105412900405
2.18642740e+04,4.19999675,-4.52859498e-11,2.41609418,3.73748049,1.25576327,-3.84509847,1.60068330e-04,6.22685846,-2.04656988,-1,-0.9685377158999358
2.28475749e+04,4.19999670,-4.39459460e-11,2.40817945,3.73801641,1.25073405,-3.84509847,1.59995285e-04,6.23180719,-2.02240098,-1,-0.9671055022742584
2.38770080e+04,4.19999666,-4.26746074e-11,2.40048760,3.73855245,1.24581605,-3.84509847,1.59955444e-04,6.23674870,-1.99762239,-1,-0.9656060954166593
2.49514524e+04,4.19999661,-4.14739971e-11,2.39303151,3.73909245,1.24100800,-3.84509847,1.59994038e-04,6.24177189,-1.97228168,-1,-0.9640411279588722
2.60759922e+04,4.19999657,-4.03422232e-11,2.38585346,3.73963744,1.23632901,-3.84509847,1.60103861e-04,6.24695909,-1.94638927,-1,-0.9624031947238101
2.72503111e+04,4.19999652,-3.92769834e-11,2.37897402,3.74018882,1.23178651,-3.84509847,1.60295960e-04,6.25235602,-1.91996741,-1,-0.9606927564139596
2.84789736e+04,4.19999647,-3.82825493e-11,2.37247484,3.74075504,1.22740449,-3.84509847,1.60613308e-04,6.25800317,-1.89299693,-1,-0.9589031646685856
2.97626250e+04,4.19999642,-3.73612415e-11,2.36637104,3.74133212,1.22319843,-3.84509847,1.61062636e-04,6.26390521,-1.86548634,-1,-0.9570334795847015
3.11056050e+04,4.19999638,-3.65193843e-11,2.36070711,3.74191477,1.21920117,-3.84509847,1.61653089e-04,6.27008433,-1.83740551,-1,-0.9550773802309714
3.25086840e+04,4.19999633,-3.57498350e-11,2.35554208,3.74250692,1.21543436,-3.84509847,1.62374151e-04,6.27657921,-1.80863421,-1,-0.9530337444916959
3.39764385e+04,4.19999627,-3.50635786e-11,2.35098861,3.74311762,1.21193622,-3.84509847,1.63301179e-04,6.28337915,-1.77918514,-1,-0.9508959065277021
3.55101318e+04,4.19999622,-3.44637451e-11,2.34710595,3.74374614,1.20873785,-3.84509847,1.64451120e-04,6.29047527,-1.74908080,-1,-0.9486620262964625
3.71144754e+04,4.19999617,-3.39591325e-11,2.34401215,3.74439541,1.20589241,-3.84509847,1.65866876e-04,6.29783474,-1.71844982,-1,-0.9463252413263803
3.87906818e+04,4.19999611,-3.35549447e-11,2.34180244,3.74506798,1.20344241,-3.84509847,1.67581016e-04,6.30551824,-1.68715562,-1,-0.9438837855669809
4.05428820e+04,4.19999605,-3.32645428e-11,2.34065086,3.74577140,1.20145977,-3.84509848,1.69667291e-04,6.31354620,-1.65512741,-1,-0.9413316420660905
4.23721188e+04,4.19999599,-3.31034776e-11,2.34073425,3.74651694,1.20001041,-3.84509848,1.72228413e-04,6.32193380,-1.62233659,-1,-0.9386672919474743
4.42823551e+04,4.19999593,-3.30899675e-11,2.34219611,3.74728828,1.19919865,-3.84509848,1.75267495e-04,6.33071608,-1.58872699,-1,-0.9358849631027396
4.62723397e+04,4.19999586,-3.32518370e-11,2.34530419,3.74810259,1.19912406,-3.84509848,1.78949657e-04,6.33990094,-1.55431285,-1,-0.9329864779503227
4.83439949e+04,4.19999579,-3.36338409e-11,2.35040577,3.74897136,1.19993732,-3.84509848,1.83479318e-04,6.34951119,-1.51904708,-1,-0.92996903659016
5.04946769e+04,4.19999572,-3.42904360e-11,2.35785667,3.74990310,1.20179929,-3.84509848,1.89092685e-04,6.35955439,-1.48294012,-1,-0.9268364898133807
5.27188955e+04,4.19999564,-3.52867565e-11,2.36804451,3.75090868,1.20488206,-3.84509848,1.96064094e-04,6.37003908,-1.44603053,-1,-0.9235968342965343
5.50059921e+04,4.19999556,-3.66935679e-11,2.38130191,3.75200458,1.20931894,-3.84509848,2.04725243e-04,6.38095429,-1.40842378,-1,-0.9202655946792814
5.73447497e+04,4.19999547,-3.85851266e-11,2.39781453,3.75321523,1.21515397,-3.84509848,2.15492305e-04,6.39230276,-1.37023055,-1,-0.91685910893125
5.97263987e+04,4.19999537,-4.09990741e-11,2.41732972,3.75456875,1.22220452,-3.84509848,2.28756419e-04,6.40407735,-1.33151516,-1,-0.9133901502947015
6.21559111e+04,4.19999527,-4.38803997e-11,2.43893177,3.75611766,1.22990772,-3.84509848,2.44867946e-04,6.41633367,-1.29211741,-1,-0.9098514768702877
6.46648884e+04,4.19999516,-4.70133128e-11,2.46085618,3.75791802,1.23726921,-3.84509848,2.63909871e-04,6.42923662,-1.25151338,-1,-0.9061970599206284
6.72964560e+04,4.19999503,-5.00421208e-11,2.48109299,3.76000735,1.24320895,-3.84509849,2.85542377e-04,6.44297835,-1.20904259,-1,-0.9023640857276717
7.00717487e+04,4.19999488,-5.26834373e-11,2.49858876,3.76242982,1.24711189,-3.84509849,3.09706270e-04,6.45759647,-1.16449273,-1,-0.8983217706843488
7.29824711e+04,4.19999473,-5.48551264e-11,2.51352250,3.76524320,1.24895201,-3.84509850,3.37068628e-04,6.47297112,-1.11813182,-1,-0.8940821973433254
7.60153174e+04,4.19999456,-5.65694192e-11,2.52635672,3.76850623,1.24884305,-3.84509851,3.68850759e-04,6.48895619,-1.07033128,-1,-0.8896647460876159
7.91574764e+04,4.19999438,-5.78352584e-11,2.53746056,3.77228399,1.24683944,-3.84509853,4.06628980e-04,6.50542028,-1.02142194,-1,-0.8850880768972951
8.23913917e+04,4.19999419,-5.86661319e-11,2.54714630,3.77666866,1.24291298,-3.84509856,4.52786454e-04,6.52220819,-9.71827872e-01,-1,-0.8803777613093132
