star_age,star_mass,star_mdot,log_L,log_Teff,log_R,log_surf_z,v_wind_Km_per_s,log_center_T,log_center_Rho,phase,x
1.75016921e+02,7.19999947,-2.29511469e-09,3.60622118,3.66117705,2.00343365,-3.84509848,6.57840622e-05,5.71593008,-4.17201942,-1,-1.0
1.82561488e+02,7.19999945,-2.26858386e-09,3.60309274,3.66133335,2.00155681,-3.84509848,6.57082071e-05,5.71779658,-4.16642106,-1,-0.9999669521711889
1.90399092e+02,7.19999944,-2.24165686e-09,3.59981955,3.66147932,1.99962828,-3.84509848,6.56112279e-05,5.71971456,-4.16066702,-1,-0.9999326207383472
1.98554372e+02,7.19999942,-2.21407032e-09,3.59649553,3.66164046,1.99764400,-3.84509848,6.55207418e-05,5.72168760,-4.15474743,-1,-0.9998968977740809
2.07051702e+02,7.19999940,-2.18628069e-09,3.59313788,3.66182261,1.99560087,-3.84509848,6.54586040e-05,5.72371888,-4.14865383,-1,-0.9998596765117882
2.15903860e+02,7.19999938,-2.15876971e-09,3.58965545,3.66200305,1.99349878,-3.84509848,6.54069808e-05,5.72580899,-4.14238440,-1,-0.9998209009793829
2.24272602e+02,7.19999936,-2.13219333e-09,3.59034835,3.66319710,1.99145713,-3.84509848,7.02753146e-05,5.72777454,-4.13649028,-1,-0.9997842429772763
2.26407646e+02,7.19999936,-2.11912796e-09,3.62476787,3.67238875,1.99028359,-3.84509848,1.13386810e-04,5.72837995,-4.13470103,-1,-0.9997748907416057
2.28542690e+02,7.19999935,-2.10606260e-09,3.65918739,3.68158040,1.98911005,-3.84509848,1.56498306e-04,5.72898536,-4.13291179,-1,-0.9997655385059352
2.36120918e+02,7.19999933,-3.08688190e-09,3.66694838,3.68467537,1.98680060,-3.84509847,2.52758480e-04,5.73111099,-4.12655187,-1,-0.9997323432302309
2.46210930e+02,7.19999930,-2.98098080e-09,3.66258910,3.68498078,1.98401014,-3.84509847,2.48609252e-04,5.73389095,-4.11821316,-1,-0.9996881454665584
2.56755499e+02,7.19999927,-2.87015469e-09,3.65806026,3.68527850,1.98115028,-3.84509847,2.43797903e-04,5.73674008,-4.10966457,-1,-0.9996419565850495
2.67701245e+02,7.19999924,-2.75712847e-09,3.65345064,3.68558629,1.97822990,-3.84509847,2.38675142e-04,5.73964941,-4.10093676,-1,-0.9995940104086796
2.79165471e+02,7.19999921,-2.63731583e-09,3.64877471,3.68591659,1.97523133,-3.84509847,2.32838035e-04,5.74263545,-4.09197871,-1,-0.9995437931094894
2.91094056e+02,7.19999918,-2.51578567e-09,3.64392235,3.68623643,1.97216546,-3.84509847,2.26524243e-04,5.74568889,-4.08281853,-1,-0.9994915417562921
3.03505715e+02,7.19999915,-2.39601273e-09,3.63897302,3.68656627,1.96903113,-3.84509847,2.20156137e-04,5.74880975,-4.07345614,-1,-0.9994371743708751
3.16443268e+02,7.19999912,-2.28024388e-09,3.63390767,3.68690297,1.96582505,-3.84509847,2.13904058e-04,5.75200154,-4.06387949,-1,-0.999380503386738
3.29969374e+02,7.19999909,-2.20031920e-09,3.62872044,3.68724790,1.96254157,-3.84509847,2.10820415e-04,5.75527009,-4.05407407,-1,-0.9993212543356569
3.44034317e+02,7.19999906,-2.15699303e-09,3.62342385,3.68759957,1.95918994,-3.84509847,2.11177200e-04,5.75860600,-4.04406675,-1,-0.9992596449910118
3.58680313e+02,7.19999903,-2.11356125e-09,3.61807916,3.68797503,1.95576667,-3.84509847,2.11625710e-04,5.76201225,-4.03384761,-1,-0.9991954904320325
3.73993901e+02,7.19999900,-2.06990574e-09,3.61252709,3.68833746,1.95226579,-3.84509847,2.11939946e-04,5.76549591,-4.02339504,-1,-0.9991284115877851
3.89897245e+02,7.19999897,-2.02642614e-09,3.60688117,3.68870954,1.94869865,-3.84509847,2.12291076e-04,5.76904516,-4.01274587,-1,-0.999058749407035
4.06529715e+02,7.19999893,-1.98310673e-09,3.60111332,3.68909015,1.94505351,-3.84509847,2.12660254e-04,5.77267186,-4.00186551,-1,-0.9989858934006843
4.23815888e+02,7.19999890,-1.93998159e-09,3.59523936,3.68947774,1.94134136,-3.84509847,2.13043996e-04,5.77636507,-3.99078543,-1,-0.9989101739477187
4.41872164e+02,7.19999886,-1.89681193e-09,3.58928078,3.68988224,1.93755306,-3.84509847,2.13461414e-04,5.78013353,-3.97947807,-1,-0.9988310811756335
4.60639977e+02,7.19999883,-1.85341144e-09,3.58315040,3.69027700,1.93369836,-3.84509847,2.13745832e-04,5.78396802,-3.96797257,-1,-0.9987488716238883
4.80260583e+02,7.19999879,-1.81087757e-09,3.57693180,3.69068786,1.92976733,-3.84509847,2.14150987e-04,5.78787808,-3.95624044,-1,-0.9986629265420489
5.00649670e+02,7.19999876,-1.76812334e-09,3.57058675,3.69109991,1.92577070,-3.84509847,2.14475256e-04,5.79185322,-3.94431306,-1,-0.9985736152460144
5.21936523e+02,7.19999872,-1.72579720e-09,3.56412425,3.69151914,1.92170100,-3.84509847,2.14814823e-04,5.79589259,-3.93215958,-1,-0.9984803714224961
5.44117853e+02,7.19999868,-1.68400525e-09,3.55761508,3.69196171,1.91756128,-3.84509847,2.15272607e-04,5.79997352,-3.91976661,-1,-0.9983832094784586
5.67193903e+02,7.19999864,-1.64231965e-09,3.55092767,3.69239229,1.91335641,-3.84509847,2.15598910e-04,5.80409275,-3.90714322,-1,-0.9982821283494773
5.91279193e+02,7.19999861,-1.60114302e-09,3.54421791,3.69285296,1.90908018,-3.84509847,2.16067282e-04,5.80825281,-3.89426841,-1,-0.9981766263981016
6.16377697e+02,7.19999857,-1.56012461e-09,3.53733572,3.69330393,1.90473716,-3.84509847,2.16408156e-04,5.81245193,-3.88115076,-1,-0.9980666862168287
6.42514883e+02,7.19999853,-1.52008948e-09,3.53033362,3.69375694,1.90033007,-3.84509847,2.16799133e-04,5.81668819,-3.86779454,-1,-0.9979521962469563
6.69727789e+02,7.19999849,-1.48042514e-09,3.52322663,3.69421519,1.89586008,-3.84509847,2.17170768e-04,5.82096017,-3.85419954,-1,-0.9978329942491558
6.98100036e+02,7.19999844,-1.44097307e-09,3.51601778,3.69468209,1.89132186,-3.84509847,2.17510991e-04,5.82527197,-3.84033581,-1,-0.9977087139343491
7.27689289e+02,7.19999840,-1.40201462e-09,3.50870643,3.69515216,1.88672605,-3.84509847,2.17820006e-04,5.82961653,-3.82624644,-1,-0.9975791027097698
7.58502182e+02,7.19999836,-1.36331789e-09,3.50129640,3.69562744,1.88207048,-3.84509847,2.18072562e-04,5.83399675,-3.81191492,-1,-0.9974441315161894
7.90603657e+02,7.19999832,-1.32562821e-09,3.49382429,3.69611661,1.87735607,-3.84509847,2.18431974e-04,5.83841174,-3.79734058,-1,-0.9973035158850495
8.24044510e+02,7.19999827,-1.28866216e-09,3.48627826,3.69661626,1.87258376,-3.84509847,2.18834498e-04,5.84286177,-3.78251995,-1,-0.9971570333121942
8.58879718e+02,7.19999823,-1.25207251e-09,3.47857715,3.69710419,1.86775734,-3.84509847,2.19095993e-04,5.84734345,-3.76745906,-1,-0.9970044429792325
8.95181080e+02,7.19999819,-1.21609836e-09,3.47091683,3.69763030,1.86287497,-3.84509847,2.19523421e-04,5.85185818,-3.75215142,-1,-0.9968454303815601
9.33002871e+02,7.19999814,-1.18061830e-09,3.46305974,3.69813308,1.85794085,-3.84509847,2.19758132e-04,5.85640489,-3.73659921,-1,-0.9966797577757902
9.72405882e+02,7.19999810,-1.14638690e-09,3.45512509,3.69864100,1.85295769,-3.84509847,2.20091735e-04,5.86098071,-3.72080614,-1,-0.996507158876189
1.01345966e+03,7.19999805,-1.11242544e-09,3.44711372,3.69915359,1.84792683,-3.84509847,2.20339175e-04,5.86558628,-3.70476995,-1,-0.9963273290426955
1.05623211e+03,7.19999800,-1.07924185e-09,3.43903099,3.69967112,1.84285041,-3.84509847,2.20592395e-04,5.87022222,-3.68848879,-1,-0.9961399708277802
1.10079577e+03,7.19999796,-1.04668310e-09,3.43087740,3.70019281,1.83773022,-3.84509847,2.20817746e-04,5.87488813,-3.67196381,-1,-0.9959447664897614
1.14722386e+03,7.19999791,-1.01496422e-09,3.42265382,3.70071782,1.83256843,-3.84509847,2.21053361e-04,5.87958455,-3.65519519,-1,-0.99574139529956
1.19558932e+03,7.19999786,-9.83934699e-10,3.41435450,3.70124327,1.82736785,-3.84509847,2.21251869e-04,5.88431021,-3.63818473,-1,-0.9955295377545945
1.24597611e+03,7.19999781,-9.53499683e-10,3.40602968,3.70178235,1.82212729,-3.84509847,2.21463491e-04,5.88906862,-3.62091721,-1,-0.9953088260808486
1.29846191e+03,7.19999776,-9.23971574e-10,3.39763521,3.70232153,1.81685169,-3.84509847,2.21687094e-04,5.89385586,-3.60341065,-1,-0.9950789200128912
1.35313192e+03,7.19999771,-8.94976332e-10,3.38921550,3.70286967,1.81154556,-3.84509847,2.21878546e-04,5.89867088,-3.58568138,-1,-0.9948394463450746
1.41006606e+03,7.19999766,-8.67038139e-10,3.38071120,3.70341131,1.80621014,-3.84509847,2.22090659e-04,5.90351475,-3.56771431,-1,-0.9945900549999882
1.46943306e+03,7.19999761,-8.39752692e-10,3.37217698,3.70395924,1.80084716,-3.84509847,2.22285850e-04,5.90838878,-3.54950255,-1,-0.9943300068815176
1.53129310e+03,7.19999756,-8.13051029e-10,3.36361063,3.70451186,1.79545876,-3.84509847,2.22437815e-04,5.91329492,-3.53104479,-1,-0.9940590383803214
1.59571048e+03,7.19999751,-7.87014578e-10,3.35502469,3.70507185,1.79004579,-3.84509847,2.22589620e-04,5.91823262,-3.51232115,-1,-0.9937768678400245
1.66278808e+03,7.19999746,-7.62049704e-10,3.34640901,3.70563415,1.78461336,-3.84509847,2.22832510e-04,5.92320258,-3.49336390,-1,-0.9934830446104268
1.73269127e+03,7.19999741,-7.37727746e-10,3.33774070,3.70619447,1.77915857,-3.84509847,2.23026372e-04,5.92811398,-3.47423301,-1,-0.9931768443133832
1.80557939e+03,7.19999736,-7.14109355e-10,3.32912267,3.70677232,1.77369385,-3.84509847,2.23283289e-04,5.93308722,-3.45490259,-1,-0.9928575689842464
1.88146072e+03,7.19999730,-6.91255448e-10,3.32043357,3.70733692,1.76822010,-3.84509847,2.23474997e-04,5.93814435,-3.43524766,-1,-0.9925251823537353
1.96046835e+03,7.19999725,-6.69050749e-10,3.31173962,3.70790376,1.76273944,-3.84509847,2.23650370e-04,5.94325035,-3.41535434,-1,-0.9921791014413375
2.04286241e+03,7.19999720,-6.47392104e-10,3.30304789,3.70847317,1.75725476,-3.84509847,2.23769733e-04,5.94839982,-3.39521822,-1,-0.9918181867871331
2.12869550e+03,7.19999714,-6.26641043e-10,3.29434567,3.70904070,1.75176858,-3.84509847,2.23943785e-04,5.95358511,-3.37483138,-1,-0.9914422079848183
2.21805428e+03,7.19999709,-6.06459746e-10,3.28563949,3.70960598,1.74628494,-3.84509847,2.24065202e-04,5.95880522,-3.35419967,-1,-0.9910507854334375
2.31122002e+03,7.19999703,-5.86960947e-10,3.27710641,3.71021336,1.74080364,-3.84509847,2.24397603e-04,5.96406650,-3.33330435,-1,-0.9906426870725143
2.40831159e+03,7.19999698,-5.68200444e-10,3.26846380,3.71078825,1.73533256,-3.84509847,2.24588862e-04,5.96937019,-3.31217250,-1,-0.9902173922100848
2.50937295e+03,7.19999692,-5.50076881e-10,3.25984231,3.71136262,1.72987308,-3.84509847,2.24780207e-04,5.97471140,-3.29077555,-1,-0.9897747082860515
2.61474886e+03,7.19999686,-5.32495050e-10,3.25126443,3.71193934,1.72443069,-3.84509847,2.24939602e-04,5.98010254,-3.26912973,-1,-0.9893131251316454
2.72454385e+03,7.19999681,-5.15647660e-10,3.24272656,3.71251552,1.71900940,-3.84509847,2.25145162e-04,5.98554259,-3.24723358,-1,-0.9888321848690921
2.83885075e+03,7.19999675,-4.99386213e-10,3.23434981,3.71312115,1.71360975,-3.84509847,2.25499429e-04,5.99103396,-3.22508167,-1,-0.9883314808706888
2.95813863e+03,7.19999669,-4.83748672e-10,3.22594228,3.71370290,1.70824250,-3.84509847,2.25742479e-04,5.99657825,-3.20267032,-1,-0.987808958446609
3.08228937e+03,7.19999663,-4.68735757e-10,3.21760149,3.71428441,1.70290908,-3.84509847,2.26017062e-04,6.00217552,-3.18000291,-1,-0.9872651350035558
3.21172133e+03,7.19999657,-4.53615617e-10,3.20934723,3.71486936,1.69761205,-3.84509847,2.25981298e-04,6.00783420,-3.15704639,-1,-0.9866981779791489
3.34655180e+03,7.19999651,-4.39397805e-10,3.20117004,3.71545272,1.69235673,-3.84509847,2.26109883e-04,6.01355349,-3.13381030,-1,-0.9861075736023739
3.48707427e+03,7.19999645,-4.26006162e-10,3.19309331,3.71603544,1.68715293,-3.84509847,2.26384880e-04,6.01933733,-3.11029284,-1,-0.9854920362849021
3.63353241e+03,7.19999639,-4.13488742e-10,3.18516570,3.71662616,1.68200767,-3.84509847,2.26898023e-04,6.02518851,-3.08648797,-1,-0.9848504986673419
3.78613843e+03,7.19999633,-4.01146568e-10,3.17734439,3.71721129,1.67692676,-3.84509847,2.27208948e-04,6.03110935,-3.06238111,-1,-0.9841820311960482
3.94522157e+03,7.19999627,-3.89674137e-10,3.16968873,3.71780112,1.67191928,-3.84509847,2.27765134e-04,6.03710907,-3.03797662,-1,-0.9834851916852527
4.11112709e+03,7.19999620,-3.79216356e-10,3.16221484,3.71839240,1.66699977,-3.84509847,2.28660493e-04,6.04319061,-3.01327931,-1,-0.9827584677760121
4.28388817e+03,7.19999614,-3.68750066e-10,3.15493436,3.71898632,1.66217169,-3.84509847,2.29308264e-04,6.04935461,-2.98832110,-1,-0.9820017141283803
4.46415802e+03,7.19999607,-3.58812967e-10,3.14785059,3.71957678,1.65744888,-3.84509847,2.29993496e-04,6.05561065,-2.96304916,-1,-0.9812120694552542
4.65183560e+03,7.19999601,-3.49339433e-10,3.14099097,3.72016848,1.65283567,-3.84509847,2.30718733e-04,6.06195978,-2.93746385,-1,-0.9803899763469934
4.84774814e+03,7.19999594,-3.40420912e-10,3.13440733,3.72076469,1.64835143,-3.84509847,2.31550223e-04,6.06841824,-2.91152177,-1,-0.9795318112483393
5.05180441e+03,7.19999587,-3.32014325e-10,3.12809195,3.72135820,1.64400672,-3.84509847,2.32445211e-04,6.07498683,-2.88523587,-1,-0.978637973778438
5.26462178e+03,7.19999580,-3.24182069e-10,3.12210005,3.72195338,1.63982042,-3.84509847,2.33468294e-04,6.08167738,-2.85859299,-1,-0.9777057596418577
5.48653166e+03,7.19999573,-3.16899629e-10,3.11647335,3.72255161,1.63581061,-3.84509847,2.34619550e-04,6.08849537,-2.83157291,-1,-0.9767337171474746
5.71776650e+03,7.19999566,-3.10187593e-10,3.11130694,3.72316764,1.63199534,-3.84509847,2.35997098e-04,6.09545169,-2.80418412,-1,-0.9757208280834011
5.95913506e+03,7.19999559,-3.04120035e-10,3.10655685,3.72377203,1.62841151,-3.84509847,2.37502261e-04,6.10256278,-2.77640150,-1,-0.9746635497994056
6.21047536e+03,7.19999551,-2.98624508e-10,3.10231092,3.72437976,1.62507309,-3.84509847,2.39173725e-04,6.10983548,-2.74822408,-1,-0.9735625918242538
6.47293593e+03,7.19999543,-2.93830134e-10,3.09868328,3.72499205,1.62203470,-3.84509847,2.41094129e-04,6.11729253,-2.71960924,-1,-0.9724129231968812
6.74634036e+03,7.19999535,-2.89732155e-10,3.09572105,3.72560894,1.61931980,-3.84509847,2.43273963e-04,6.12493813,-2.69057299,-1,-0.971215316654475
7.03143674e+03,7.19999527,-2.86401183e-10,3.09353175,3.72622758,1.61698787,-3.84509847,2.45734056e-04,6.13279384,-2.66109342,-1,-0.9699664953025154
7.32872278e+03,7.19999519,-2.83946215e-10,3.09227036,3.72685740,1.61509753,-3.84509847,2.48592318e-04,6.14088164,-2.63116904,-1,-0.96866427899801
7.63815029e+03,7.19999510,-2.82425045e-10,3.09202844,3.72749750,1.61369638,-3.84509847,2.51884564e-04,6.14921240,-2.60081222,-1,-0.9673088788299276
7.96092623e+03,7.19999501,-2.82068642e-10,3.09303056,3.72814619,1.61290006,-3.84509847,2.55730627e-04,6.15782534,-2.56999012,-1,-0.9658950078934716
8.29636905e+03,7.19999491,-2.82974992e-10,3.09540007,3.72880741,1.61276236,-3.84509847,2.60212921e-04,6.16672289,-2.53875804,-1,-0.9644256516148071
8.64534832e+03,7.19999481,-2.85472261e-10,3.09944282,3.72948495,1.61342866,-3.84509847,2.65538294e-04,6.17594923,-2.50711478,-1,-0.962897000974742
9.00729797e+03,7.19999471,-2.89873980e-10,3.10539027,3.73018252,1.61500725,-3.84509847,2.71914360e-04,6.18552134,-2.47513257,-1,-0.9613115355568567
9.38183792e+03,7.19999460,-2.96560288e-10,3.11351324,3.73090681,1.61762014,-3.84509847,2.79600911e-04,6.19543716,-2.44295712,-1,-0.9596709202438111
9.76809755e+03,7.19999448,-3.05956197e-10,3.12406824,3.73166734,1.62137659,-3.84509847,2.88889744e-04,6.20570289,-2.41075508,-1,-0.9579789686541627
1.01651151e+04,7.19999436,-3.18584284e-10,3.13726713,3.73247918,1.62635235,-3.84509847,3.00195439e-04,6.21632333,-2.37865904,-1,-0.9562398936313838
1.05715860e+04,7.19999422,-3.34651929e-10,3.15297747,3.73336727,1.63243135,-3.84509847,3.13862621e-04,6.22725891,-2.34678712,-1,-0.9544594096460375
1.09877271e+04,7.19999408,-3.54070551e-10,3.17071732,3.73436983,1.63929615,-3.84509847,3.30299010e-04,6.23842859,-2.31518403,-1,-0.9526365668196644
1.14163513e+04,7.19999392,-3.75921326e-10,3.18937980,3.73552892,1.64630921,-3.84509847,3.49695124e-04,6.24989229,-2.28337802,-1,-0.9507590436714344
1.18631762e+04,7.19999375,-3.98175441e-10,3.20733589,3.73689864,1.65254781,-3.84509847,3.71959990e-04,6.26144067,-2.25111948,-1,-0.9488017951237425
1.23342695e+04,7.19999356,-4.18041178e-10,3.22284337,3.73849598,1.65710688,-3.84509847,3.96383776e-04,6.27303093,-2.21772791,-1,-0.9467382425391566
1.28317886e+04,7.19999334,-4.33423543e-10,3.23502039,3.74034415,1.65949905,-3.84509847,4.22566876e-04,6.28438878,-2.18292765,-1,-0.9445589357549468
1.33539464e+04,7.19999311,-4.43877190e-10,3.24410036,3.74244559,1.65983616,-3.84509847,4.50552461e-04,6.29560853,-2.14640448,-1,-0.942271702890986
1.38982516e+04,7.19999287,-4.50162635e-10,3.25085663,3.74481306,1.65847936,-3.84509848,4.81091078e-04,6.30689515,-2.10836637,-1,-0.9398874567081947
1.44634029e+04,7.19999261,-4.53207581e-10,3.25605252,3.74746558,1.65577226,-3.84509848,5.15200861e-04,6.31842311,-2.06915021,-1,-0.9374118973533979
1.50473728e+04,7.19999235,-4.54043278e-10,3.26044833,3.75050172,1.65189788,-3.84509848,5.55300134e-04,6.33031980,-2.02903689,-1,-0.9348539059821231
1.56463761e+04,7.19999208,-4.53235389e-10,3.26462379,3.75411763,1.64675379,-3.84509848,6.05550249e-04,6.34254132,-1.98842920,-1,-0.9322300630875405
1.62548487e+04,7.19999180,-4.51275174e-10,3.26913998,3.75848936,1.64026842,-3.84509849,6.71119260e-04,6.35505771,-1.94739096,-1,-0.9295647413638402
1.68687257e+04,7.19999153,-4.48965401e-10,3.27449086,3.76361539,1.63269181,-3.84509850,7.56326234e-04,6.36768858,-1.90638931,-1,-0.9268757464875219
1.74834711e+04,7.19999125,-4.46825521e-10,3.28095157,3.76948114,1.62419067,-3.84509854,8.66622400e-04,6.38032220,-1.86591906,-1,-0.9241829477170187
1.80889950e+04,7.19999098,-4.44545125e-10,3.28842627,3.77622274,1.61444481,-3.84509861,1.01250067e-03,6.39281508,-1.82647076,-1,-0.9215305423254041
1.86865370e+04,7.19999072,-4.42088281e-10,3.29669659,3.78362575,1.60377395,-3.84509870,1.20016061e-03,6.40517088,-1.78791038,-1,-0.9189131004333231
1.92842297e+04,7.19999045,-4.39910193e-10,3.30563731,3.79139244,1.59271092,-3.84509881,1.43569130e-03,6.41756785,-1.74958649,-1,-0.9162949984228018
1.98860165e+04,7.19999019,-4.37827336e-10,3.31494685,3.79941506,1.58132046,-3.84509897,1.73000657e-03,6.43008453,-1.71137742,-1,-0.9136589628296196
2.04935845e+04,7.19998992,-4.35568474e-10,3.32439789,3.80764827,1.56957956,-3.84510006,2.08270270e-03,6.44275050,-1.67309025,-1,-0.910997603568701
2.11091472e+04,7.19998966,-4.32878456e-10,3.33374612,3.81605340,1.55744340,-3.84510258,2.52605290e-03,6.45557095,-1.63464543,-1,-0.9083012247397946
2.17340476e+04,7.19998939,-4.29518679e-10,3.34282466,3.82460697,1.54487554,-3.84510709,3.08747046e-03,6.46856403,-1.59592890,-1,-0.9055639435355644
2.23699369e+04,7.19998912,-4.25377343e-10,3.35149245,3.83328488,1.53185361,-3.84511308,3.80134103e-03,6.48173938,-1.55689615,-1,-0.9027785271254275
2.30187145e+04,7.19998884,-4.20308318e-10,3.35962765,3.84206352,1.51836394,-3.84511919,4.71801825e-03,6.49509752,-1.51755023,-1,-0.8999366554764326
2.36812405e+04,7.19998856,-4.14328016e-10,3.36719599,3.85092940,1.50441634,-3.84512642,5.91376254e-03,6.50864380,-1.47782236,-1,-0.897034561051283
2.43595870e+04,7.19998829,-4.07415848e-10,3.37411523,3.85985921,1.49001634,-3.84513025,7.49541689e-03,6.52236316,-1.43775651,-1,-0.8940631673309312
2.50543189e+04,7.19998801,-3.99664068e-10,3.38041935,3.86884292,1.47520098,-3.84513017,9.59598613e-03,6.53624966,-1.39729782,-1,-0.8910199998568039
2.57664776e+04,7.19998773,-3.91164488e-10,3.38612842,3.87786846,1.46000445,-3.84512546,1.23849573e-02,6.55028789,-1.35642201,-1,-0.8879004969345158
2.64973942e+04,7.19998744,-3.82039116e-10,3.39126948,3.88692211,1.44446767,-3.84512241,1.60977610e-02,6.56446983,-1.31517042,-1,-0.884698827882872
2.72482090e+04,7.19998716,-3.72428425e-10,3.39589044,3.89599302,1.42863632,-3.84511851,2.09780107e-02,6.57878411,-1.27358157,-1,-0.8814099977910721
2.80194418e+04,7.19998688,-3.62473297e-10,3.40008221,3.90507717,1.41256392,-3.84512260,2.73404174e-02,6.59323363,-1.23164058,-1,-0.8780317297542364
2.88121653e+04,7.19998659,-3.52314646e-10,3.40390939,3.91416645,1.39629894,-3.84512276,3.54787836e-02,6.60779071,-1.18938125,-1,-0.874559324973088
2.96269969e+04,7.19998631,-3.42097390e-10,3.40746227,3.92325749,1.37989330,-3.84512434,4.55403330e-02,6.62242765,-1.14681699,-1,-0.8709900790207845
3.04644672e+04,7.19998603,-3.31951517e-10,3.41083582,3.93235022,1.36339463,-3.84512503,5.73708713e-02,6.63714395,-1.10397299,-1,-0.8673216676846884
