star_age,star_mass,star_mdot,log_L,log_Teff,log_R,log_surf_z,v_wind_Km_per_s,log_center_T,log_center_Rho,phase,x
1.44295001e+02,8.99999888,-5.19087153e-09,3.77874164,3.66004034,2.09196729,-3.84509848,1.11515951e-04,5.71461589,-4.33822408,-1,-1.0
1.50352467e+02,8.99999885,-5.03927485e-09,3.77574180,3.66017736,2.09019332,-3.84509848,1.09314618e-04,5.71635688,-4.33284140,-1,-0.9999601610917573
1.56660325e+02,8.99999882,-4.88887308e-09,3.77263953,3.66031517,2.08836657,-3.84509848,1.07108365e-04,5.71814449,-4.32729057,-1,-0.9999186753985533
1.63105377e+02,8.99999879,-4.74068256e-09,3.77043799,3.66069574,2.08650468,-3.84509848,1.06557035e-04,5.71994778,-4.32166916,-1,-0.9998762874040936
1.64416205e+02,8.99999879,-4.68366940e-09,3.80450021,3.66973082,2.08546562,-3.84509848,1.72428731e-04,5.72041527,-4.32034840,-1,-0.9998676663146127
1.65727033e+02,8.99999878,-4.62665624e-09,3.83856243,3.67876591,2.08442655,-3.84509848,2.38300427e-04,5.72088277,-4.31902764,-1,-0.9998590452251316
1.70318009e+02,8.99999874,-9.16958193e-09,3.84997968,3.68253986,2.08258727,-3.84509847,5.32274590e-04,5.72251708,-4.31435654,-1,-0.9998288511684735
1.77455037e+02,8.99999868,-8.86111873e-09,3.84621523,3.68280757,2.08016962,-3.84509847,5.22670441e-04,5.72503732,-4.30721368,-1,-0.9997819121673107
1.84891850e+02,8.99999861,-8.58011682e-09,3.84231712,3.68307218,2.07769136,-3.84509847,5.14325718e-04,5.72759322,-4.29984197,-1,-0.9997330015319518
1.92646501e+02,8.99999855,-8.29561192e-09,3.83830836,3.68334080,2.07514974,-3.84509847,5.05516608e-04,5.73013929,-4.29218543,-1,-0.999682000530932
2.00723845e+02,8.99999848,-8.00215823e-09,3.83419988,3.68361608,2.07254493,-3.84509847,4.95915643e-04,5.73275202,-4.28434293,-1,-0.9996288772337545
2.09129089e+02,8.99999842,-7.69270566e-09,3.82999017,3.68389784,2.06987655,-3.84509847,4.85041356e-04,5.73542821,-4.27631124,-1,-0.999573597394879
2.17878538e+02,8.99999835,-7.37882321e-09,3.82567659,3.68418627,2.06714292,-3.84509847,4.73559280e-04,5.73816639,-4.26807923,-1,-0.9995160537791352
2.26986787e+02,8.99999829,-7.06492152e-09,3.82125739,3.68448138,2.06434309,-3.84509847,4.61710479e-04,5.74096040,-4.25963620,-1,-0.9994561503977274
2.36467199e+02,8.99999823,-6.75458857e-09,3.81673138,3.68478318,2.06147648,-3.84509847,4.49703676e-04,5.74380839,-4.25097392,-1,-0.9993937993645113
2.46344539e+02,8.99999816,-6.44972526e-09,3.81209503,3.68509168,2.05854131,-3.84509847,4.37641177e-04,5.74671089,-4.24208793,-1,-0.999328837804357
2.56662902e+02,8.99999810,-6.15030773e-09,3.80735620,3.68541152,2.05553222,-3.84509847,4.25519185e-04,5.74967212,-4.23295800,-1,-0.999260975712061
2.67398206e+02,8.99999803,-5.85977660e-09,3.80255119,3.68574861,2.05245554,-3.84509847,4.13683591e-04,5.75268635,-4.22360368,-1,-0.9991903714707803
2.78561055e+02,8.99999797,-5.57684391e-09,3.79758874,3.68607926,2.04931301,-3.84509847,4.01785840e-04,5.75575233,-4.21402826,-1,-0.9991169553398375
2.90165303e+02,8.99999791,-5.30316425e-09,3.79252122,3.68641641,2.04610494,-3.84509847,3.90093603e-04,5.75886953,-4.20422802,-1,-0.9990406362038657
3.02310533e+02,8.99999785,-5.03751641e-09,3.78732605,3.68675999,2.04282020,-3.84509847,3.78428058e-04,5.76204648,-4.19416567,-1,-0.9989607591226644
3.14931862e+02,8.99999779,-4.77880158e-09,3.78208129,3.68712395,2.03946990,-3.84509847,3.66931111e-04,5.76527407,-4.18387595,-1,-0.9988777508205242
3.28041236e+02,8.99999773,-4.51604591e-09,3.77670777,3.68748846,2.03605413,-3.84509847,3.54558914e-04,5.76855288,-4.17335920,-1,-0.9987915327306652
3.41738012e+02,8.99999767,-4.25794387e-09,3.77119174,3.68785548,2.03256207,-3.84509847,3.41875132e-04,5.77189166,-4.16257024,-1,-0.9987014513992496
3.55987676e+02,8.99999761,-4.01900281e-09,3.76558732,3.68823412,2.02900257,-3.84509847,3.30202243e-04,5.77528287,-4.15153775,-1,-0.9986077338188974
3.70821609e+02,8.99999755,-3.79319760e-09,3.75990148,3.68862992,2.02536806,-3.84509847,3.19136074e-04,5.77872573,-4.14021543,-1,-0.9985101736021887
3.86268383e+02,8.99999750,-3.57750313e-09,3.75406486,3.68901786,2.02167386,-3.84509847,3.08219712e-04,5.78222162,-4.12868854,-1,-0.9984085828360116
4.02355266e+02,8.99999744,-3.36976931e-09,3.74811520,3.68941071,2.01791333,-3.84509847,2.97402292e-04,5.78576909,-4.11691011,-1,-0.9983027821834372
4.19108341e+02,8.99999739,-3.17390561e-09,3.74213918,3.68983011,2.01408653,-3.84509847,2.87207110e-04,5.78936784,-4.10487592,-1,-0.9981926001010766
4.36550471e+02,8.99999734,-2.98552830e-09,3.73597889,3.69023518,2.01019624,-3.84509847,2.76957498e-04,5.79301664,-4.09259006,-1,-0.9980778862229257
4.54711118e+02,8.99999728,-2.80601705e-09,3.72974185,3.69065258,2.00624291,-3.84509847,2.66997973e-04,5.79671470,-4.08004992,-1,-0.9979584467824961
4.73617716e+02,8.99999723,-2.63459308e-09,3.72341215,3.69107781,2.00222760,-3.84509847,2.57239901e-04,5.80046107,-4.06725589,-1,-0.9978341013511055
4.93298298e+02,8.99999718,-2.47103896e-09,3.71696574,3.69150388,1.99815226,-3.84509847,2.47636790e-04,5.80425427,-4.05420841,-1,-0.9977046655605519
5.13784257e+02,8.99999714,-2.31547981e-09,3.71042366,3.69193533,1.99401833,-3.84509847,2.38253299e-04,5.80809375,-4.04090639,-1,-0.9975699329444936
5.35137775e+02,8.99999709,-2.22025843e-09,3.70380553,3.69237766,1.98982460,-3.84509847,2.34664950e-04,5.81198144,-4.02734032,-1,-0.9974294945426501
5.57368454e+02,8.99999704,-2.16483865e-09,3.69716555,3.69284356,1.98557282,-3.84509847,2.35212743e-04,5.81591557,-4.01351257,-1,-0.9972832872043251
5.80500484e+02,8.99999699,-2.11039580e-09,3.69036956,3.69329724,1.98126744,-3.84509847,2.35685621e-04,5.81989439,-3.99942945,-1,-0.9971311518360643
6.04567189e+02,8.99999694,-2.05632242e-09,3.68349227,3.69375678,1.97690972,-3.84509847,2.36122385e-04,5.82391728,-3.98509251,-1,-0.996972869271672
6.29658807e+02,8.99999689,-2.00321365e-09,3.67651590,3.69421828,1.97249854,-3.84509847,2.36554813e-04,5.82798689,-3.97048375,-1,-0.996807846031399
6.55763774e+02,8.99999684,-1.95094126e-09,3.66946011,3.69468417,1.96803887,-3.84509847,2.36988331e-04,5.83210014,-3.95561807,-1,-0.9966361581696773
6.82919392e+02,8.99999679,-1.89935561e-09,3.66232729,3.69515427,1.96353225,-3.84509847,2.37398457e-04,5.83625707,-3.94049422,-1,-0.996457560357692
7.11239280e+02,8.99999673,-1.84867084e-09,3.65523784,3.69566021,1.95897565,-3.84509847,2.37989792e-04,5.84046243,-3.92508997,-1,-0.9962713053428927
7.40680497e+02,8.99999668,-1.79892362e-09,3.64797920,3.69614493,1.95437689,-3.84509847,2.38437854e-04,5.84471087,-3.90943162,-1,-0.9960776755408242
7.71354217e+02,8.99999663,-1.75014804e-09,3.64064220,3.69663103,1.94973619,-3.84509847,2.38870192e-04,5.84900282,-3.89350560,-1,-0.9958759397792792
8.03268824e+02,8.99999657,-1.70206283e-09,3.63326861,3.69712750,1.94505645,-3.84509847,2.39301224e-04,5.85333808,-3.87731891,-1,-0.9956660429181372
8.36507978e+02,8.99999652,-1.65502001e-09,3.62581749,3.69762322,1.94033946,-3.84509847,2.39711084e-04,5.85771742,-3.86086299,-1,-0.9954474347400193
8.71089257e+02,8.99999646,-1.60896064e-09,3.61833774,3.69813106,1.93558389,-3.84509847,2.40171924e-04,5.86213653,-3.84409564,-1,-0.9952199996374539
9.07123510e+02,8.99999640,-1.56398371e-09,3.61084855,3.69865096,1.93079950,-3.84509847,2.40683953e-04,5.86660273,-3.82710390,-1,-0.9949830085757027
9.44591601e+02,8.99999635,-1.51999803e-09,3.60323578,3.69915341,1.92598822,-3.84509847,2.41070869e-04,5.87111287,-3.80986051,-1,-0.9947365874089346
9.83641199e+02,8.99999629,-1.47697025e-09,3.59559826,3.69966291,1.92115046,-3.84509847,2.41465258e-04,5.87566898,-3.79234348,-1,-0.994479764943627
1.02426914e+03,8.99999623,-1.43503869e-09,3.58793489,3.70017734,1.91628991,-3.84509847,2.41876260e-04,5.88027031,-3.77456091,-1,-0.9942125619888619
1.06658090e+03,8.99999617,-1.39626332e-09,3.58023965,3.70069270,1.91141157,-3.84509847,2.42638800e-04,5.88491664,-3.75651367,-1,-0.9939342848471945
1.11061347e+03,8.99999611,-1.35820658e-09,3.57253360,3.70121139,1.90652118,-3.84509847,2.43365334e-04,5.88960432,-3.73821666,-1,-0.9936446902352032
1.15644824e+03,8.99999605,-1.31933929e-09,3.56481554,3.70173387,1.90161717,-3.84509847,2.43775572e-04,5.89433842,-3.71965332,-1,-0.9933432428649075
1.20417098e+03,8.99999599,-1.28175684e-09,3.55714624,3.70227449,1.89670129,-3.84509847,2.44324352e-04,5.89912146,-3.70081667,-1,-0.993029378641823
1.25384261e+03,8.99999592,-1.24494334e-09,3.54940604,3.70280035,1.89177946,-3.84509847,2.44724891e-04,5.90395308,-3.68171145,-1,-0.9927026969056257
1.30557669e+03,8.99999586,-1.20912933e-09,3.54168093,3.70333160,1.88685442,-3.84509847,2.45135279e-04,5.90883591,-3.66232526,-1,-0.9923624507917985
1.35944718e+03,8.99999580,-1.17424182e-09,3.53396633,3.70386573,1.88192885,-3.84509847,2.45526104e-04,5.91377176,-3.64265839,-1,-0.9920081538781881
1.41552758e+03,8.99999573,-1.14054088e-09,3.52626844,3.70440181,1.87700775,-3.84509847,2.45955991e-04,5.91875968,-3.62271438,-1,-0.9916393227679823
1.47391171e+03,8.99999567,-1.10768498e-09,3.51858506,3.70493734,1.87209500,-3.84509847,2.46337382e-04,5.92380274,-3.60248919,-1,-0.991255340423236
1.53470085e+03,8.99999560,-1.07623431e-09,3.51103227,3.70550022,1.86719284,-3.84509847,2.46960681e-04,5.92890306,-3.58197946,-1,-0.9908555407428725
1.59797636e+03,8.99999554,-1.04571275e-09,3.50342905,3.70604259,1.86230650,-3.84509847,2.47452141e-04,5.93398866,-3.56130607,-1,-0.990439388636216
1.66384894e+03,8.99999547,-1.01610615e-09,3.49591288,3.70659738,1.85743883,-3.84509847,2.48000041e-04,5.93913529,-3.54030119,-1,-0.9900061560484754
1.73240500e+03,8.99999540,-9.87409795e-10,3.48843604,3.70714901,1.85259716,-3.84509847,2.48515445e-04,5.94442197,-3.51889249,-1,-0.9895552746759969
1.80382242e+03,8.99999533,-9.60024924e-10,3.48104082,3.70770407,1.84778943,-3.84509847,2.49137009e-04,5.94978717,-3.49716811,-1,-0.9890855746327262
1.87822214e+03,8.99999526,-9.33518869e-10,3.47371267,3.70825341,1.84302667,-3.84509847,2.49703939e-04,5.95522031,-3.47517774,-1,-0.9885962605171599
1.95566936e+03,8.99999519,-9.07731168e-10,3.46646626,3.70879974,1.83831081,-3.84509847,2.50198795e-04,5.96072133,-3.45287814,-1,-0.9880869035201527
2.03630112e+03,8.99999512,-8.83307585e-10,3.45940090,3.70936570,1.83364621,-3.84509847,2.50934757e-04,5.96629727,-3.43025893,-1,-0.9875566023532806
2.12022523e+03,8.99999505,-8.59987315e-10,3.45241648,3.70992103,1.82904333,-3.84509847,2.51676986e-04,5.97195210,-3.40733013,-1,-0.9870046479687837
2.20768204e+03,8.99999497,-8.37461289e-10,3.44558172,3.71047836,1.82451128,-3.84509847,2.52405145e-04,5.97769620,-3.38407594,-1,-0.9864294596262012
2.29879404e+03,8.99999490,-8.16161849e-10,3.43892796,3.71104111,1.82005892,-3.84509847,2.53278444e-04,5.98353155,-3.36049917,-1,-0.9858302317299473
2.39364711e+03,8.99999482,-7.95815170e-10,3.43247550,3.71161039,1.81569413,-3.84509847,2.54229377e-04,5.98946088,-3.33658413,-1,-0.9852063994620865
2.49238687e+03,8.99999474,-7.76469879e-10,3.42618165,3.71216996,1.81142806,-3.84509847,2.55189942e-04,5.99548873,-3.31230029,-1,-0.984557005105016
2.59523787e+03,8.99999466,-7.58095932e-10,3.42014714,3.71273727,1.80727619,-3.84509847,2.56248382e-04,6.00162356,-3.28767252,-1,-0.9838805718321473
2.70246906e+03,8.99999459,-7.40905483e-10,3.41436633,3.71330255,1.80325522,-3.84509847,2.57420037e-04,6.00787174,-3.26264469,-1,-0.9831753308057567
2.81411367e+03,8.99999450,-7.24750492e-10,3.40887620,3.71386857,1.79937812,-3.84509847,2.58683349e-04,6.01423812,-3.23727305,-1,-0.9824410634778703
2.93036114e+03,8.99999442,-7.09684695e-10,3.40377554,3.71445265,1.79565962,-3.84509847,2.60164272e-04,6.02073081,-3.21151409,-1,-0.9816765239343092
3.05145685e+03,8.99999434,-6.95860578e-10,3.39899897,3.71502708,1.79212248,-3.84509847,2.61758729e-04,6.02735996,-3.18534169,-1,-0.9808800983531708
3.17772098e+03,8.99999425,-6.83274975e-10,3.39463702,3.71559907,1.78879752,-3.84509847,2.63502980e-04,6.03413810,-3.15872988,-1,-0.9800496809658648
3.30919089e+03,8.99999416,-6.71883064e-10,3.39074808,3.71617296,1.78570527,-3.84509847,2.65412587e-04,6.04107343,-3.13168517,-1,-0.97918502606212
3.44608305e+03,8.99999407,-6.61833894e-10,3.38740236,3.71674885,1.78288063,-3.84509847,2.67535297e-04,6.04817235,-3.10418754,-1,-0.9782847099561136
3.58867710e+03,8.99999398,-6.53232721e-10,3.38467385,3.71732677,1.78036054,-3.84509847,2.69907114e-04,6.05544862,-3.07621171,-1,-0.9773468935038371
3.73735201e+03,8.99999388,-6.46273987e-10,3.38268797,3.71790939,1.77820236,-3.84509847,2.72593392e-04,6.06292351,-3.04772429,-1,-0.976369084285018
3.89210920e+03,8.99999378,-6.41094687e-10,3.38150702,3.71849208,1.77644651,-3.84509847,2.75615505e-04,6.07060444,-3.01871768,-1,-0.9753512729605617
4.05313441e+03,8.99999368,-6.37862198e-10,3.38126826,3.71907967,1.77515194,-3.84509847,2.79043293e-04,6.07850078,-2.98914670,-1,-0.9742922379505504
4.22066793e+03,8.99999357,-6.36932759e-10,3.38221863,3.71969271,1.77440104,-3.84509847,2.83099070e-04,6.08664310,-2.95902860,-1,-0.9731903989091332
4.39504311e+03,8.99999346,-6.38874214e-10,3.38440878,3.72029261,1.77429633,-3.84509847,2.87722689e-04,6.09505806,-2.92830662,-1,-0.9720435634509027
4.57592180e+03,8.99999334,-6.43864468e-10,3.38807252,3.72089911,1.77491520,-3.84509847,2.93044557e-04,6.10374542,-2.89697519,-1,-0.9708539555300375
4.76366847e+03,8.99999322,-6.53035253e-10,3.39359618,3.72152029,1.77643466,-3.84509847,2.99443675e-04,6.11274258,-2.86505680,-1,-0.9696191780902625
4.95771698e+03,8.99999309,-6.67089325e-10,3.40119023,3.72215944,1.77895339,-3.84509847,3.07130908e-04,6.12205279,-2.83254240,-1,-0.9683429545366307
5.15766448e+03,8.99999296,-6.87165481e-10,3.41120243,3.72282292,1.78263252,-3.84509847,3.16434447e-04,6.13168451,-2.79952923,-1,-0.967027934344052
5.36271728e+03,8.99999281,-7.14515049e-10,3.42391788,3.72351960,1.78759690,-3.84509847,3.27728456e-04,6.14163663,-2.76609588,-1,-0.9656793374746498
5.57182826e+03,8.99999266,-7.50508321e-10,3.43954499,3.72426770,1.79391425,-3.84509847,3.41505875e-04,6.15190176,-2.73234742,-1,-0.9643040506559103
5.78405540e+03,8.99999249,-7.96239802e-10,3.45801889,3.72509328,1.80150004,-3.84509847,3.58300749e-04,6.16247663,-2.69837320,-1,-0.9629082693907621
5.99912905e+03,8.99999232,-8.51688904e-10,3.47882826,3.72604645,1.80999838,-3.84509847,3.78705977e-04,6.17336606,-2.66422850,-1,-0.9614937671207082
6.21856422e+03,8.99999212,-9.14920895e-10,3.50090428,3.72719316,1.81874297,-3.84509847,4.03231050e-04,6.18467375,-2.62957747,-1,-0.9600505798864996
6.44585346e+03,8.99999190,-9.81561349e-10,3.52264414,3.72860140,1.82679642,-3.84509847,4.32192645e-04,6.19660893,-2.59401247,-1,-0.9585557377896698
6.68494978e+03,8.99999166,-1.04496925e-09,3.54240332,3.73033238,1.83321405,-3.84509847,4.65523990e-04,6.20934892,-2.55710930,-1,-0.9569832425658173
6.93710095e+03,8.99999139,-1.10020570e-09,3.55943365,3.73243893,1.83751611,-3.84509847,5.03575882e-04,6.22292840,-2.51891868,-1,-0.955324887847042
7.20152381e+03,8.99999109,-1.14491051e-09,3.57376550,3.73502120,1.83951749,-3.84509847,5.48161362e-04,6.23718894,-2.47998086,-1,-0.9535858243414747
7.47585465e+03,8.99999077,-1.17801836e-09,3.58570108,3.73828395,1.83895980,-3.84509847,6.03556998e-04,6.25191955,-2.44101778,-1,-0.9517815977617622
7.75719161e+03,8.99999043,-1.19589446e-09,3.59503214,3.74246522,1.83526279,-3.84509847,6.75127177e-04,6.26680816,-2.40286041,-1,-0.9499312931402055
8.04356492e+03,8.99999009,-1.19936463e-09,3.60215668,3.74746109,1.82883331,-3.84509848,7.65055904e-04,6.28154465,-2.36568645,-1,-0.9480478653140731
8.33376565e+03,8.99998974,-1.19139430e-09,3.60749375,3.75314995,1.82012412,-3.84509848,8.76608471e-04,6.29565893,-2.32970477,-1,-0.9461392652072897
8.62567774e+03,8.99998940,-1.17338959e-09,3.61125579,3.75950589,1.80929327,-3.84509849,1.01516362e-03,6.30876778,-2.29465729,-1,-0.9442194097812012
8.91806080e+03,8.99998906,-1.14731521e-09,3.61380229,3.76644799,1.79668231,-3.84509850,1.18619207e-03,6.32073493,-2.26002533,-1,-0.9422964568667214
9.21573386e+03,8.99998872,-1.11676091e-09,3.61541577,3.77362373,1.78313757,-3.84509852,1.38895803e-03,6.33199576,-2.22488900,-1,-0.940338712535401
9.52148813e+03,8.99998839,-1.08405787e-09,3.61636504,3.78087418,1.76911132,-3.84509854,1.62627273e-03,6.34303895,-2.18901606,-1,-0.9383278194808884
9.83621770e+03,8.99998805,-1.05053199e-09,3.61693638,3.78815885,1.75482764,-3.84509857,1.90418982e-03,6.35413838,-2.15244421,-1,-0.9362578974275915
1.01606585e+04,8.99998772,-1.01753759e-09,3.61737239,3.79545967,1.74044400,-3.84509868,2.23156348e-03,6.36544057,-2.11536719,-1,-0.9341241062909361
1.04944688e+04,8.99998738,-9.85926129e-10,3.61804845,3.80279560,1.72611018,-3.84509899,2.61356374e-03,6.37698561,-2.07774084,-1,-0.9319286935701432
1.08374472e+04,8.99998705,-9.56814822e-10,3.61927669,3.81018003,1.71195543,-3.84509963,3.06238074e-03,6.38881006,-2.03960538,-1,-0.9296729838382469
1.11884784e+04,8.99998672,-9.31023448e-10,3.62142605,3.81765097,1.69808824,-3.84510076,3.61355667e-03,6.40086090,-2.00095296,-1,-0.9273643122308244
1.15468067e+04,8.99998639,-9.08908663e-10,3.62469445,3.82523245,1.68455949,-3.84510251,4.29930825e-03,6.41304403,-1.96218281,-1,-0.9250076488563266
1.19111165e+04,8.99998607,-8.90500081e-10,3.62918742,3.83294881,1.67137324,-3.84510486,5.16338032e-03,6.42537617,-1.92332546,-1,-0.9226116461888549
1.22807557e+04,8.99998574,-8.75353315e-10,3.63481344,3.84080556,1.65847276,-3.84510773,6.26685111e-03,6.43784709,-1.88442945,-1,-0.9201805929775437
1.26549594e+04,8.99998542,-8.62815867e-10,3.64140759,3.84880943,1.64576209,-3.84511074,7.70045536e-03,6.45044261,-1.84546509,-1,-0.9177195198376563
1.30338080e+04,8.99998509,-8.52090779e-10,3.64869552,3.85695322,1.63311847,-3.84511306,9.59588592e-03,6.46317393,-1.80642170,-1,-0.915227897992271
1.34180393e+04,8.99998477,-8.42239728e-10,3.65636562,3.86522207,1.62041583,-3.84511599,1.21153049e-02,6.47603067,-1.76730790,-1,-0.912700875058147
1.38079853e+04,8.99998444,-8.32609709e-10,3.66419207,3.87360912,1.60755494,-3.84511732,1.54683705e-02,6.48902279,-1.72800683,-1,-0.9101362675285941
1.42045912e+04,8.99998411,-8.22540976e-10,3.67193868,3.88209945,1.59444759,-3.84511749,1.99218801e-02,6.50217080,-1.68850673,-1,-0.9075278589863726
1.46089344e+04,8.99998378,-8.11584639e-10,3.67941227,3.89067668,1.58102992,-3.84511586,2.58261587e-02,6.51548958,-1.64880892,-1,-0.9048685635576632
1.50214169e+04,8.99998345,-7.99513626e-10,3.68652609,3.89933476,1.56727068,-3.84511412,3.35689351e-02,6.52897961,-1.60882536,-1,-0.902155737357859
1.54430110e+04,8.99998312,-7.86174305e-10,3.69317855,3.90805714,1.55315214,-3.84511159,4.35344942e-02,6.54261806,-1.56855877,-1,-0.8993829857376986
1.58747546e+04,8.99998278,-7.71454500e-10,3.69929731,3.91682743,1.53867094,-3.84510997,5.59608235e-02,6.55639980,-1.52801819,-1,-0.896543482608044
1.63169666e+04,8.99998244,-7.55496142e-10,3.70489692,3.92563969,1.52384623,-3.84510730,7.07542339e-02,6.57033166,-1.48716005,-1,-0.8936351306186437
1.67702407e+04,8.99998210,-7.38431717e-10,3.70998708,3.93448574,1.50869921,-3.84510880,8.70525551e-02,6.58440026,-1.44598647,-1,-0.8906540251070822
1.72352947e+04,8.99998176,-7.34485595e-10,3.71458433,3.94335454,1.49326023,-3.84511148,1.05058563e-01,6.59859361,-1.40453783,-1,-0.8875954452266662
1.77126451e+04,8.99998141,-7.34442808e-10,3.71873564,3.95223937,1.47756622,-3.84511302,1.21407508e-01,6.61288842,-1.36281379,-1,-0.8844559940460538
1.82027791e+04,8.99998105,-7.31516052e-10,3.72249469,3.96113541,1.46165368,-3.84511473,1.31995493e-01,6.62727824,-1.32084843,-1,-0.8812324673349453
1.87064891e+04,8.99998069,-7.26033280e-10,3.72590150,3.97003575,1.44555639,-3.84511583,1.36325848e-01,6.64175829,-1.27871030,-1,-0.8779196536153249
1.92236012e+04,8.99998031,-7.18788603e-10,3.72906663,3.97894392,1.42932264,-3.84511723,1.36163934e-01,6.65630528,-1.23633652,-1,-0.8745186965974738
1.97547174e+04,8.99997993,-7.10213670e-10,3.73203996,3.98785574,1.41298564,-3.84511749,1.33444592e-01,6.67090537,-1.19379168,-1,-0.8710256370313094
2.03002795e+04,8.99997955,-7.00714383e-10,3.73487512,3.99676939,1.39657594,-3.84511749,1.29704649e-01,6.68555477,-1.15109394,-1,-0.8674375692744951
