star_age,star_mass,star_mdot,log_L,log_Teff,log_R,log_surf_z,v_wind_Km_per_s,log_center_T,log_center_Rho,phase,x
1.22953370e+02,9.99999451,-3.80633597e-08,3.87988477,3.65872601,2.14516752,-3.84509855,6.71989926e-04,5.70135920,-4.45001402,-1,-1.0
1.28150939e+02,9.99999432,-3.75960354e-08,3.87692844,3.65887183,2.14339771,-3.84509855,6.70320076e-04,5.70307754,-4.44456379,-1,-0.9999596017325862
1.33542769e+02,9.99999412,-3.71135845e-08,3.87390413,3.65902007,2.14158908,-3.84509856,6.68417617e-04,5.70483419,-4.43899554,-1,-0.9999176935654817
1.39145493e+02,9.99999391,-3.66220861e-08,3.87079474,3.65917345,2.13972763,-3.84509857,6.66458420e-04,5.70663764,-4.43325298,-1,-0.9998741462181742
1.44974393e+02,9.99999370,-3.61260354e-08,3.86759106,3.65933365,2.13780538,-3.84509858,6.64558444e-04,5.70849265,-4.42730503,-1,-0.9998288409108415
1.51041800e+02,9.99999349,-3.56245131e-08,3.86430235,3.65949971,2.13582891,-3.84509858,6.62659880e-04,5.71039563,-4.42118100,-1,-0.9997816818004007
1.57380491e+02,9.99999326,-3.51151438e-08,3.86094103,3.65967146,2.13380475,-3.84509859,6.60676454e-04,5.71234549,-4.41490850,-1,-0.9997324141265956
1.59213164e+02,9.99999320,-3.48607620e-08,3.89218431,3.66810993,2.13254946,-3.84509859,1.05573651e-03,5.71302800,-4.41286075,-1,-0.9997181696184543
1.60735600e+02,9.99999315,-3.46239359e-08,3.92581009,3.67711755,2.13134709,-3.84509860,1.47813285e-03,5.71362325,-4.41110387,-1,-0.9997063364370865
1.65033321e+02,9.99999297,-4.40304565e-08,3.93922541,3.68144302,2.12940382,-3.84509854,2.15500314e-03,5.71529223,-4.40622158,-1,-0.9996729322663621
1.71955137e+02,9.99999266,-4.32835285e-08,3.93514525,3.68172518,2.12679941,-3.84509847,2.15493408e-03,5.71794550,-4.39844540,-1,-0.9996191322352789
1.79165345e+02,9.99999236,-4.26305353e-08,3.93095828,3.68201080,2.12413470,-3.84509847,2.15964736e-03,5.72065471,-4.39045548,-1,-0.999563090668367
1.86676861e+02,9.99999204,-4.19612993e-08,3.92667078,3.68230279,2.12140696,-3.84509847,2.16387544e-03,5.72341828,-4.38225066,-1,-0.9995047071756128
1.94483160e+02,9.99999172,-4.12384220e-08,3.92226532,3.68260319,2.11860343,-3.84509847,2.16585264e-03,5.72624162,-4.37378065,-1,-0.9994440324727827
2.02620219e+02,9.99999139,-4.04683022e-08,3.91777097,3.68290911,2.11574441,-3.84509847,2.16538985e-03,5.72911192,-4.36513183,-1,-0.9993807869275204
2.11116394e+02,9.99999105,-3.96862500e-08,3.91316682,3.68322210,2.11281636,-3.84509847,2.16439321e-03,5.73203798,-4.35624408,-1,-0.9993147501419299
2.19956608e+02,9.99999071,-3.88908231e-08,3.90845860,3.68354219,2.10982207,-3.84509847,2.16276095e-03,5.73501518,-4.34712680,-1,-0.999246039302465
2.29152738e+02,9.99999036,-3.80901380e-08,3.90364402,3.68386882,2.10676153,-3.84509847,2.16084273e-03,5.73804250,-4.33777759,-1,-0.999174562094772
2.38715362e+02,9.99999000,-3.72849641e-08,3.89872800,3.68420300,2.10363516,-3.84509847,2.15868243e-03,5.74111929,-4.32819526,-1,-0.9991002363010154
2.48704632e+02,9.99998963,-3.64741791e-08,3.89366485,3.68454587,2.10041783,-3.84509847,2.15633552e-03,5.74426345,-4.31828164,-1,-0.9990225943878964
2.59106191e+02,9.99998926,-3.56609108e-08,3.88850792,3.68489558,2.09713995,-3.84509847,2.15361193e-03,5.74745265,-4.30815230,-1,-0.9989417479456457
2.69910687e+02,9.99998888,-3.48588455e-08,3.88325068,3.68525110,2.09380029,-3.84509847,2.15136185e-03,5.75068735,-4.29779695,-1,-0.9988577696629757
2.81195501e+02,9.99998850,-3.40600452e-08,3.87788641,3.68561186,2.09039664,-3.84509847,2.14887721e-03,5.75396891,-4.28720268,-1,-0.9987700580936465
2.92936869e+02,9.99998811,-3.32646980e-08,3.87243320,3.68598336,2.08692704,-3.84509847,2.14656549e-03,5.75729988,-4.27635926,-1,-0.9986787979440905
3.05143579e+02,9.99998771,-3.24729005e-08,3.86684526,3.68636298,2.08337383,-3.84509847,2.14441446e-03,5.76069593,-4.26519734,-1,-0.9985839209093033
3.17891019e+02,9.99998730,-3.16725332e-08,3.86114032,3.68674720,2.07975292,-3.84509847,2.14110285e-03,5.76414252,-4.25377473,-1,-0.9984848410336996
3.31124997e+02,9.99998689,-3.08864017e-08,3.85537529,3.68713849,2.07608782,-3.84509847,2.13823643e-03,5.76762253,-4.24217609,-1,-0.9983819795262926
3.44951148e+02,9.99998647,-3.01138490e-08,3.84947921,3.68753690,2.07234295,-3.84509847,2.13584012e-03,5.77116559,-4.23025695,-1,-0.9982745153357448
3.59308026e+02,9.99998605,-2.93366916e-08,3.84349724,3.68794245,2.06854088,-3.84509847,2.13262887e-03,5.77475237,-4.21810866,-1,-0.9981629260530107
3.74288423e+02,9.99998562,-2.85755143e-08,3.83741361,3.68835180,2.06468037,-3.84509847,2.12968419e-03,5.77838525,-4.20571535,-1,-0.9980464904493717
3.89873099e+02,9.99998519,-2.78229329e-08,3.83123773,3.68877075,2.06075452,-3.84509847,2.12693947e-03,5.78207065,-4.19304382,-1,-0.9979253580683287
4.06084025e+02,9.99998474,-2.70706269e-08,3.82494954,3.68919481,2.05676231,-3.84509847,2.12346227e-03,5.78580928,-4.18008195,-1,-0.9977993581395981
4.23003639e+02,9.99998430,-2.63370372e-08,3.81859335,3.68962741,2.05271902,-3.84509847,2.12061335e-03,5.78959274,-4.16689449,-1,-0.9976678499112493
4.40588908e+02,9.99998384,-2.56114917e-08,3.81214326,3.69006414,2.04862049,-3.84509847,2.11746225e-03,5.79342339,-4.15345317,-1,-0.9975311678586195
4.58895361e+02,9.99998338,-2.48958834e-08,3.80561206,3.69050881,2.04446555,-3.84509847,2.11431306e-03,5.79730252,-4.13974413,-1,-0.9973888803808214
4.77988008e+02,9.99998292,-2.41903647e-08,3.79896041,3.69095697,2.04024342,-3.84509847,2.11089770e-03,5.80124041,-4.12570839,-1,-0.9972404821855992
4.97846869e+02,9.99998245,-2.34931681e-08,3.79225213,3.69141489,2.03597343,-3.84509847,2.10735539e-03,5.80522116,-4.11143249,-1,-0.9970861285681271
5.18508328e+02,9.99998198,-2.28105289e-08,3.78547033,3.69187662,2.03165908,-3.84509847,2.10381609e-03,5.80924452,-4.09691704,-1,-0.9969255367326285
5.40028148e+02,9.99998150,-2.21416836e-08,3.77859820,3.69234066,2.02729493,-3.84509847,2.10016293e-03,5.81331622,-4.08212524,-1,-0.9967582732594439
5.62457493e+02,9.99998101,-2.14854690e-08,3.77164298,3.69281648,2.02286568,-3.84509847,2.09686143e-03,5.81745456,-4.06698938,-1,-0.9965839404747852
5.85799304e+02,9.99998052,-2.08398562e-08,3.76463458,3.69329299,2.01840846,-3.84509847,2.09287352e-03,5.82161990,-4.05165078,-1,-0.996402515519638
6.10092538e+02,9.99998003,-2.02103576e-08,3.75755171,3.69377561,2.01390178,-3.84509847,2.08922998e-03,5.82583939,-4.03601433,-1,-0.9962136955995027
6.35376194e+02,9.99997953,-1.95899197e-08,3.75037931,3.69426562,2.00933556,-3.84509847,2.08531804e-03,5.83012705,-4.02002784,-1,-0.9960171775934337
6.61701273e+02,9.99997903,-1.89858110e-08,3.74318506,3.69475631,2.00475707,-3.84509847,2.08119288e-03,5.83443227,-4.00387442,-1,-0.9958125650945654
6.89106506e+02,9.99997852,-1.84006439e-08,3.73594274,3.69525281,2.00014291,-3.84509847,2.07759965e-03,5.83878538,-3.98744620,-1,-0.9955995570649903
7.17636627e+02,9.99997800,-1.78265847e-08,3.72864850,3.69575299,1.99549542,-3.84509847,2.07359563e-03,5.84318657,-3.97073842,-1,-0.9953778058082959
7.47362647e+02,9.99997749,-1.72677626e-08,3.72132467,3.69626156,1.99081638,-3.84509847,2.06981730e-03,5.84763702,-3.95375091,-1,-0.9951467593892667
7.78304222e+02,9.99997697,-1.67214610e-08,3.71393429,3.69676706,1.98611018,-3.84509847,2.06540013e-03,5.85213573,-3.93648272,-1,-0.9949062650310285
8.10515567e+02,9.99997644,-1.61902917e-08,3.70653246,3.69728233,1.98137872,-3.84509847,2.06133664e-03,5.85668465,-3.91893319,-1,-0.9946559013458004
8.44048359e+02,9.99997591,-1.56754251e-08,3.69909542,3.69779939,1.97662608,-3.84509847,2.05736428e-03,5.86128341,-3.90110307,-1,-0.9943952666724856
8.78959283e+02,9.99997538,-1.51757256e-08,3.69163583,3.69831982,1.97185542,-3.84509847,2.05345028e-03,5.86593250,-3.88299138,-1,-0.9941239204251507
9.15301563e+02,9.99997484,-1.46888854e-08,3.68415559,3.69884242,1.96707011,-3.84509847,2.04923773e-03,5.87063242,-3.86459562,-1,-0.9938414489185933
9.53139070e+02,9.99997430,-1.42189351e-08,3.67667067,3.69936933,1.96227383,-3.84509847,2.04540662e-03,5.87538433,-3.84591912,-1,-0.9935473557134705
9.92527850e+02,9.99997375,-1.37612246e-08,3.66917069,3.69989608,1.95747034,-3.84509847,2.04113368e-03,5.88018892,-3.82695498,-1,-0.9932412051904967
1.03353713e+03,9.99997320,-1.33194912e-08,3.66169090,3.70042983,1.95266295,-3.84509847,2.03731038e-03,5.88504902,-3.80770429,-1,-0.9929224592806518
1.07624827e+03,9.99997264,-1.28904915e-08,3.65418645,3.70096403,1.94784231,-3.84509847,2.03326321e-03,5.88998903,-3.78809528,-1,-0.9925904856107944
1.12072311e+03,9.99997208,-1.24779919e-08,3.64673061,3.70150098,1.94304051,-3.84509847,2.02953071e-03,5.89496420,-3.76825723,-1,-0.9922448035275927
1.16702824e+03,9.99997152,-1.20789545e-08,3.63929828,3.70204062,1.93824505,-3.84509847,2.02584819e-03,5.90000372,-3.74810339,-1,-0.9918848954581915
1.21523409e+03,9.99997095,-1.16941287e-08,3.63188565,3.70258158,1.93345681,-3.84509847,2.02231986e-03,5.90511449,-3.72761663,-1,-0.9915102139832156
1.26542932e+03,9.99997038,-1.13246839e-08,3.62454389,3.70312527,1.92869855,-3.84509847,2.01916939e-03,5.91027431,-3.70688621,-1,-0.9911200699900458
1.31768636e+03,9.99996980,-1.09683152e-08,3.61724587,3.70367080,1.92395848,-3.84509847,2.01614623e-03,5.91550783,-3.68580920,-1,-0.9907139005142442
1.37209486e+03,9.99996922,-1.06249360e-08,3.61001890,3.70421851,1.91924958,-3.84509847,2.01323046e-03,5.92080910,-3.66442544,-1,-0.9902910087483855
1.42874781e+03,9.99996863,-1.02974559e-08,3.60287867,3.70476588,1.91458472,-3.84509847,2.01088762e-03,5.92617387,-3.64276815,-1,-0.9898506719247898
1.48773731e+03,9.99996804,-9.98377951e-09,3.59583923,3.70531657,1.90996363,-3.84509847,2.00903480e-03,5.93161437,-3.62079053,-1,-0.9893921741933303
1.54915563e+03,9.99996744,-9.68144351e-09,3.58890351,3.70586790,1.90539311,-3.84509847,2.00710955e-03,5.93713464,-3.59848830,-1,-0.9889147983825493
1.61312948e+03,9.99996683,-9.39458860e-09,3.58207081,3.70642122,1.90087012,-3.84509847,2.00618066e-03,5.94275860,-3.57578456,-1,-0.9884175596350139
1.67979440e+03,9.99996622,-9.11944026e-09,3.57540495,3.70697685,1.89642593,-3.84509847,2.00534693e-03,5.94845296,-3.55279940,-1,-0.98789940446184
1.74919810e+03,9.99996560,-8.85842804e-09,3.56886407,3.70753636,1.89203646,-3.84509847,2.00558415e-03,5.95427565,-3.52933641,-1,-0.9873599620355624
1.82148437e+03,9.99996497,-8.61137361e-09,3.56252346,3.70809527,1.88774835,-3.84509847,2.00645250e-03,5.96017327,-3.50559121,-1,-0.9867981147439142
1.89675593e+03,9.99996434,-8.37772626e-09,3.55637162,3.70865657,1.88354982,-3.84509847,2.00825178e-03,5.96618523,-3.48141080,-1,-0.9862130641924868
1.97515192e+03,9.99996369,-8.15659106e-09,3.55045441,3.70921912,1.87946612,-3.84509847,2.01067305e-03,5.97230833,-3.45686723,-1,-0.9856037289112837
2.05680593e+03,9.99996304,-7.94928063e-09,3.54480126,3.70978311,1.87551157,-3.84509847,2.01412945e-03,5.97854993,-3.43195485,-1,-0.9849690705678568
2.14186968e+03,9.99996238,-7.75754002e-09,3.53945934,3.71034627,1.87171428,-3.84509847,2.01898236e-03,5.98488958,-3.40672460,-1,-0.9843079099137666
2.23047921e+03,9.99996170,-7.57981620e-09,3.53443684,3.71090713,1.86808131,-3.84509847,2.02491212e-03,5.99135760,-3.38108561,-1,-0.9836191895738636
2.32278553e+03,9.99996101,-7.41597100e-09,3.52981350,3.71147583,1.86463224,-3.84509847,2.03242456e-03,5.99796804,-3.35501223,-1,-0.9829017358182057
2.41894421e+03,9.99996031,-7.26854556e-09,3.52558446,3.71204134,1.86138671,-3.84509847,2.04180009e-03,6.00474348,-3.32845443,-1,-0.9821543394741079
2.51914520e+03,9.99995959,-7.13701541e-09,3.52188673,3.71261040,1.85839972,-3.84509847,2.05303134e-03,6.01164167,-3.30156935,-1,-0.9813755241492619
2.62353914e+03,9.99995885,-7.02349074e-09,3.51871532,3.71317916,1.85567650,-3.84509847,2.06679656e-03,6.01872139,-3.27415189,-1,-0.9805641189895616
2.73228155e+03,9.99995810,-6.92652436e-09,3.51616375,3.71375128,1.85325647,-3.84509847,2.08280939e-03,6.02600240,-3.24616271,-1,-0.9797189152109493
2.84554945e+03,9.99995732,-6.84968054e-09,3.51434169,3.71432507,1.85119785,-3.84509847,2.10186102e-03,6.03348716,-3.21765876,-1,-0.978838536919945
2.96350499e+03,9.99995652,-6.79504410e-09,3.51335899,3.71490080,1.84955505,-3.84509847,2.12448995e-03,6.04118691,-3.18862485,-1,-0.9779217238006086
3.08627841e+03,9.99995569,-6.76487510e-09,3.51334289,3.71547884,1.84839092,-3.84509847,2.15116856e-03,6.04911095,-3.15902890,-1,-0.9769674635584715
3.21399837e+03,9.99995482,-6.76355257e-09,3.51445449,3.71606043,1.84778354,-3.84509847,2.18301571e-03,6.05727914,-3.12884095,-1,-0.9759747561796649
3.34676986e+03,9.99995392,-6.79711357e-09,3.51689208,3.71664730,1.84782858,-3.84509847,2.22148879e-03,6.06571164,-3.09803054,-1,-0.9749427856261339
3.48462543e+03,9.99995298,-6.87326599e-09,3.52087741,3.71723958,1.84863669,-3.84509847,2.26837251e-03,6.07442443,-3.06659113,-1,-0.9738712989019868
3.62744148e+03,9.99995198,-7.00227765e-09,3.52666068,3.71783954,1.85032842,-3.84509847,2.32616056e-03,6.08343825,-3.03451510,-1,-0.9727612566920846
3.77519524e+03,9.99995093,-7.20007282e-09,3.53466246,3.71845381,1.85310076,-3.84509847,2.39856532e-03,6.09277921,-3.00179880,-1,-0.9716128359769636
3.92725647e+03,9.99994981,-7.48043295e-09,3.54512471,3.71908475,1.85707000,-3.84509847,2.48855943e-03,6.10244146,-2.96851874,-1,-0.9704309353167111
4.08298135e+03,9.99994861,-7.86371600e-09,3.55841580,3.71974927,1.86238651,-3.84509847,2.60116619e-03,6.11242402,-2.93477081,-1,-0.9692205588223888
4.24146886e+03,9.99994731,-8.37283408e-09,3.57477168,3.72046941,1.86912417,-3.84509847,2.74231420e-03,6.12271175,-2.90068933,-1,-0.9679887097000928
4.40183337e+03,9.99994591,-9.02370673e-09,3.59408608,3.72127648,1.87716724,-3.84509847,2.91745659e-03,6.13328169,-2.86638387,-1,-0.966742271536663
4.56393866e+03,9.99994437,-9.82515705e-09,3.61585546,3.72222179,1.88616131,-3.84509847,3.13357831e-03,6.14414932,-2.83188852,-1,-0.9654823031063049
4.72898940e+03,9.99994265,-1.07558719e-08,3.63892843,3.72335325,1.89543488,-3.84509847,3.39358448e-03,6.15544871,-2.79678933,-1,-0.9641994410738122
4.89974751e+03,9.99994072,-1.17618415e-08,3.66174997,3.72474630,1.90405955,-3.84509847,3.69996155e-03,6.16735569,-2.76061153,-1,-0.9628722183297079
5.07914360e+03,9.99993850,-1.27564217e-08,3.68270743,3.72649440,1.91104207,-3.84509847,4.05492161e-03,6.18000107,-2.72294959,-1,-0.9614778566162211
5.26810349e+03,9.99993599,-1.36654312e-08,3.70102668,3.72869788,1.91579473,-3.84509847,4.46716223e-03,6.19347778,-2.68352485,-1,-0.960009159968481
5.46557705e+03,9.99993320,-1.44500404e-08,3.71673967,3.73152253,1.91800192,-3.84509847,4.96510222e-03,6.20759886,-2.64306712,-1,-0.9584742905547166
5.66963114e+03,9.99993017,-1.50538783e-08,3.72960933,3.73524568,1.91699046,-3.84509847,5.60091423e-03,6.22214061,-2.60231754,-1,-0.956888273765965
5.87783459e+03,9.99992699,-1.54437126e-08,3.73984545,3.73992147,1.91275693,-3.84509847,6.41210204e-03,6.23688009,-2.56194324,-1,-0.9552700059469961
6.08848490e+03,9.99992371,-1.56645021e-08,3.74824116,3.74541242,1.90597289,-3.84509848,7.43633998e-03,6.25163079,-2.52253616,-1,-0.9536327198322423
6.29901325e+03,9.99992040,-1.57462412e-08,3.75530729,3.75173184,1.89686712,-3.84509848,8.74771970e-03,6.26620811,-2.48457333,-1,-0.9519963816553982
6.50783713e+03,9.99991711,-1.56936903e-08,3.76099963,3.75884504,1.88548689,-3.84509849,1.04286256e-02,6.28032833,-2.44876584,-1,-0.9503732915248733
6.71809412e+03,9.99991383,-1.55388058e-08,3.76556646,3.76638760,1.87268519,-3.84509849,1.24964588e-02,6.29408754,-2.41440289,-1,-0.9487390625021059
6.93347627e+03,9.99991051,-1.53124011e-08,3.76911895,3.77407722,1.85908219,-3.84509850,1.49728633e-02,6.30749228,-2.38073226,-1,-0.9470649980131394
7.15533689e+03,9.99990715,-1.50266539e-08,3.77173346,3.78181875,1.84490639,-3.84509851,1.79156338e-02,6.32037099,-2.34711554,-1,-0.9453405794137237
7.38490254e+03,9.99990374,-1.46911960e-08,3.77337048,3.78954172,1.83027895,-3.84509853,2.13907868e-02,6.33257121,-2.31308408,-1,-0.9435562732279439
7.62250286e+03,9.99990030,-1.43152636e-08,3.77418540,3.79722438,1.81532109,-3.84509863,2.54945810e-02,6.34417122,-2.27815275,-1,-0.9417095173186026
7.86831110e+03,9.99989684,-1.39150429e-08,3.77439009,3.80486045,1.80015129,-3.84509892,3.02318574e-02,6.35545855,-2.24224427,-1,-0.939798965094663
8.12250735e+03,9.99989336,-1.35068254e-08,3.77422120,3.81245439,1.78487898,-3.84509943,3.58311570e-02,6.36675343,-2.20548464,-1,-0.9378232168009744
8.38519366e+03,9.99988987,-1.31044410e-08,3.77393937,3.82001641,1.76961402,-3.84509997,4.25976908e-02,6.37824606,-2.16802896,-1,-0.9357814792507239
8.65634971e+03,9.99988638,-1.27222048e-08,3.77383427,3.82756339,1.75446751,-3.84510011,5.08515774e-02,6.38999034,-2.12996960,-1,-0.9336739103817462
8.93568670e+03,9.99988288,-1.23735919e-08,3.77422144,3.83512007,1.73954772,-3.84509978,6.10205692e-02,6.40197779,-2.09138374,-1,-0.9315027549010629
9.22266104e+03,9.99987938,-1.20703548e-08,3.77541392,3.84271787,1.72494838,-3.84509941,7.38071518e-02,6.41418230,-2.05237381,-1,-0.9292722378789298
9.51643714e+03,9.99987588,-1.18199958e-08,3.77766315,3.85038919,1.71073035,-3.84509933,9.02883769e-02,6.42657668,-2.01304476,-1,-0.9269888539647236
9.81607156e+03,9.99987237,-1.16258685e-08,3.78110296,3.85816143,1.69690578,-3.84509942,1.11972984e-01,6.43912960,-1.97351329,-1,-0.9246599360753158
1.01207748e+04,9.99986885,-1.14850344e-08,3.78573030,3.86605347,1.68343537,-3.84509952,1.40867666e-01,6.45181532,-1.93387587,-1,-0.9222916206241185
1.04299858e+04,9.99986532,-1.13889466e-08,3.79138427,3.87407139,1.67022651,-3.84509957,1.79436654e-01,6.46461983,-1.89418056,-1,-0.9198882684675082
1.07435912e+04,9.99986176,-1.13262057e-08,3.79782762,3.88221435,1.65716226,-3.84509956,2.31049429e-01,6.47753900,-1.85443713,-1,-0.9174507606996258
1.10618127e+04,9.99985816,-1.12838804e-08,3.80478202,3.89047576,1.64411664,-3.84509961,3.00130147e-01,6.49057808,-1.81462330,-1,-0.9149773741502962
1.13851182e+04,9.99985452,-1.12500766e-08,3.81197873,3.89884561,1.63097531,-3.84509971,3.91317740e-01,6.50374563,-1.77470121,-1,-0.9124644720521529
1.17141514e+04,9.99985083,-1.12141963e-08,3.81918555,3.90731290,1.61764413,-3.84509978,5.09846568e-01,6.51705430,-1.73462181,-1,-0.9099070512268381
1.20495380e+04,9.99984707,-1.11679998e-08,3.82621725,3.91586543,1.60405491,-3.84509991,6.59357340e-01,6.53051097,-1.69434550,-1,-0.9073002484015563
1.23919173e+04,9.99984326,-1.11055462e-08,3.83293719,3.92449216,1.59016142,-3.84509996,8.39083391e-01,6.54411664,-1.65384762,-1,-0.9046390945970871
1.27418956e+04,9.99983939,-1.10230044e-08,3.83925123,3.93318235,1.57593807,-3.84509994,1.03905437,6.55786642,-1.61311162,-1,-0.9019188773277409
1.31000064e+04,9.99983547,-1.09184920e-08,3.84510381,3.94192530,1.56137846,-3.84510013,1.23794380,6.57175550,-1.57212426,-1,-0.8991354499481021
1.34668387e+04,9.99983149,-1.07915508e-08,3.85046622,3.95071156,1.54648714,-3.84510030,1.40011095,6.58577344,-1.53088789,-1,-0.8962842344372719
1.38428247e+04,9.99982746,-1.06433616e-08,3.85534169,3.95953187,1.53128426,-3.84510125,1.49370550,6.59990823,-1.48941469,-1,-0.893361871507249
1.42285141e+04,9.99982340,-1.04757502e-08,3.85974716,3.96837848,1.51579377,-3.84510061,1.51884156,6.61415117,-1.44771043,-1,-0.8903640885976121
1.46243281e+04,9.99981929,-1.02915395e-08,3.86372212,3.97724445,1.50004931,-3.84510197,1.49537017,6.62849101,-1.40579174,-1,-0.8872876119182036
1.50306777e+04,9.99981516,-1.00939658e-08,3.86731820,3.98612398,1.48408828,-3.84510214,1.44657013,6.64291568,-1.36367725,-1,-0.8841292469586849
1.54480120e+04,9.99981100,-9.88643784e-09,3.87059363,3.99501202,1.46794993,-3.84510245,1.39036505,6.65741307,-1.32138627,-1,-0.8808855030752769
1.58768092e+04,9.99980686,-9.14772903e-09,3.87360962,4.00390384,1.45167429,-3.84510237,1.26520810,6.67197684,-1.27892239,-1,-0.8775526634435417
1.63175252e+04,9.99980339,-7.00640223e-09,3.87642751,4.01279551,1.43529988,-3.84510267,9.58207085e-01,6.68659834,-1.23630272,-1,-0.8741271845664879
1.67705894e+04,9.99980077,-4.91909018e-09,3.87910289,4.02168383,1.41886094,-3.84510273,6.69054897e-01,6.70127107,-1.19353419,-1,-0.8706057289192018
