star_age,star_mass,star_mdot,log_L,log_Teff,log_R,log_surf_z,v_wind_Km_per_s,log_center_T,log_center_Rho,phase,x
7.36876023e+01,2.79999367e+01,-7.68697906e-07,4.61724375,3.65725150,2.51679602,-3.84509851,4.48069217e-03,5.71166469,-4.97518449,-1,-1.0
7.65432650e+01,2.79999345e+01,-7.62954417e-07,4.61557147,3.65737214,2.51571860,-3.84509851,4.47725180e-03,5.71336839,-4.96828462,-1,-0.9999143241674368
7.94606383e+01,2.79999323e+01,-7.57221287e-07,4.61388411,3.65749359,2.51463202,-3.84509851,4.47397140e-03,5.71510258,-4.96126138,-1,-0.9998267968882607
8.24953620e+01,2.79999300e+01,-7.51507856e-07,4.61216808,3.65761660,2.51352800,-3.84509851,4.47099521e-03,5.71689475,-4.95400355,-1,-0.9997357488525116
8.56686606e+01,2.79999277e+01,-7.45790713e-07,4.61044242,3.65774415,2.51241006,-3.84509851,4.46836762e-03,5.71874828,-4.94649449,-1,-0.9996405432809548
8.89261438e+01,2.79999252e+01,-7.40075994e-07,4.60870926,3.65787412,2.51128354,-3.84509851,4.46595505e-03,5.72064058,-4.93882805,-1,-0.9995428119959465
9.23344976e+01,2.79999227e+01,-7.34375404e-07,4.60695923,3.65800768,2.51014140,-3.84509851,4.46393463e-03,5.72260548,-4.93086958,-1,-0.9994405542785049
9.58782049e+01,2.79999202e+01,-7.28630035e-07,4.60519534,3.65814487,2.50898509,-3.84509851,4.46194697e-03,5.72464032,-4.92263810,-1,-0.9993342356739694
9.95282406e+01,2.79999175e+01,-7.22854742e-07,4.60342590,3.65828454,2.50782102,-3.84509851,4.45992606e-03,5.72672597,-4.91420509,-1,-0.999224726995832
1.03329340e+02,2.79999148e+01,-7.17046352e-07,4.60165816,3.65842711,2.50665201,-3.84509852,4.45775213e-03,5.72887639,-4.90550894,-1,-0.9991106860918587
1.07299716e+02,2.79999120e+01,-7.11372893e-07,4.59989679,3.65857397,2.50547761,-3.84509852,4.45659895e-03,5.73110549,-4.89650429,-1,-0.9989915665370915
1.11400887e+02,2.79999091e+01,-7.05781082e-07,4.59814091,3.65872424,2.50429913,-3.84509852,4.45611861e-03,5.73339874,-4.88724990,-1,-0.9988685228597309
1.15638658e+02,2.79999061e+01,-7.00254422e-07,4.59639249,3.65887786,2.50311769,-3.84509852,4.45618065e-03,5.73575914,-4.87773431,-1,-0.9987413808976786
1.20066511e+02,2.79999031e+01,-6.94745002e-07,4.59466367,3.65903464,2.50193971,-3.84509852,4.45627632e-03,5.73820677,-4.86787703,-1,-0.9986085360794713
1.24670468e+02,2.79998999e+01,-6.89278809e-07,4.59296448,3.65919521,2.50076896,-3.84509852,4.45659618e-03,5.74073574,-4.85771121,-1,-0.9984704077742409
1.29436260e+02,2.79998966e+01,-6.83935293e-07,4.59129835,3.65935895,2.49960842,-3.84509852,4.45759884e-03,5.74333823,-4.84726326,-1,-0.9983274240817258
1.34372527e+02,2.79998933e+01,-6.78753059e-07,4.58967267,3.65952599,2.49846151,-3.84509853,4.45950016e-03,5.74601773,-4.83651998,-1,-0.9981793257839193
1.39486336e+02,2.79998898e+01,-6.73735173e-07,4.58809520,3.65969651,2.49733173,-3.84509853,4.46229581e-03,5.74877741,-4.82547174,-1,-0.9980259008560927
1.44830273e+02,2.79998863e+01,-6.68875368e-07,4.58658637,3.65986952,2.49623129,-3.84509853,4.46562884e-03,5.75163932,-4.81403597,-1,-0.9978655716086501
1.50376532e+02,2.79998826e+01,-6.64210065e-07,4.58515827,3.66004716,2.49516197,-3.84509853,4.46991737e-03,5.75459147,-4.80226545,-1,-0.9976991722795429
1.56126888e+02,2.79998788e+01,-6.59806052e-07,4.58381561,3.66022781,2.49412933,-3.84509854,4.47546974e-03,5.75763491,-4.79015885,-1,-0.9975266496150715
1.62089683e+02,2.79998749e+01,-6.55684552e-07,4.58257249,3.66041154,2.49314032,-3.84509854,4.48233283e-03,5.76077320,-4.77770548,-1,-0.9973477533378503
1.68271591e+02,2.79998709e+01,-6.51845030e-07,4.58144375,3.66059847,2.49220208,-3.84509854,4.49041384e-03,5.76400919,-4.76489800,-1,-0.9971622832139699
1.74681225e+02,2.79998667e+01,-6.48293362e-07,4.58044465,3.66078838,2.49132273,-3.84509854,4.49964730e-03,5.76734694,-4.75172547,-1,-0.9969699808354796
1.81341457e+02,2.79998624e+01,-6.45071815e-07,4.57960490,3.66098208,2.49051544,-3.84509854,4.51023665e-03,5.77079745,-4.73815214,-1,-0.9967701599947113
1.88280765e+02,2.79998580e+01,-6.42335179e-07,4.57895961,3.66117853,2.48979990,-3.84509854,4.52280139e-03,5.77437407,-4.72413747,-1,-0.9965619662923132
1.95478838e+02,2.79998534e+01,-6.40077980e-07,4.57851984,3.66137868,2.48917971,-3.84509855,4.53747617e-03,5.77806780,-4.70972025,-1,-0.9963460091006161
2.02944067e+02,2.79998486e+01,-6.38338326e-07,4.57830777,3.66158180,2.48866744,-3.84509855,4.55429147e-03,5.78188440,-4.69488503,-1,-0.9961220366721318
2.10687702e+02,2.79998437e+01,-6.37191570e-07,4.57835385,3.66178743,2.48827922,-3.84509855,4.57349854e-03,5.78583073,-4.67961450,-1,-0.9958897114834143
2.18721649e+02,2.79998385e+01,-6.36730748e-07,4.57869478,3.66199550,2.48803354,-3.84509855,4.59548653e-03,5.78991365,-4.66389363,-1,-0.9956486763296497
2.27057053e+02,2.79998332e+01,-6.37060868e-07,4.57937722,3.66220789,2.48794998,-3.84509855,4.62090642e-03,5.79414008,-4.64770594,-1,-0.9953985968376104
2.35706174e+02,2.79998277e+01,-6.38315536e-07,4.58044843,3.66242431,2.48805275,-3.84509855,4.65035745e-03,5.79851789,-4.63103251,-1,-0.9951391051817452
2.44680078e+02,2.79998220e+01,-6.40629040e-07,4.58195587,3.66264247,2.48837015,-3.84509855,4.68413151e-03,5.80305483,-4.61385635,-1,-0.9948698693589909
2.53987873e+02,2.79998160e+01,-6.44160071e-07,4.58396593,3.66286407,2.48893197,-3.84509855,4.72299331e-03,5.80775947,-4.59615611,-1,-0.9945906161103655
2.63637839e+02,2.79998097e+01,-6.49171535e-07,4.58654874,3.66308971,2.48977210,-3.84509855,4.76833388e-03,5.81264073,-4.57791510,-1,-0.9943010970186122
2.73636362e+02,2.79998032e+01,-6.55942665e-07,4.58977863,3.66331973,2.49092700,-3.84509855,4.82152392e-03,5.81770674,-4.55912265,-1,-0.9940011204904221
2.83985304e+02,2.79997963e+01,-6.64748348e-07,4.59373720,3.66355547,2.49243480,-3.84509855,4.88390868e-03,5.82296340,-4.53976921,-1,-0.9936906306619142
2.94724036e+02,2.79997890e+01,-6.76277125e-07,4.59861393,3.66379861,2.49438690,-3.84509855,4.95866781e-03,5.82843912,-4.51978368,-1,-0.9933684463210346
3.05831068e+02,2.79997814e+01,-6.90847972e-07,4.60447241,3.66404854,2.49681628,-3.84509855,5.04707937e-03,5.83413050,-4.49919214,-1,-0.993035212212571
3.17298203e+02,2.79997733e+01,-7.08966809e-07,4.61144054,3.66430671,2.49978400,-3.84509855,5.15108582e-03,5.84004348,-4.47799223,-1,-0.9926911742636071
3.29126310e+02,2.79997647e+01,-7.31392715e-07,4.61968421,3.66457321,2.50337283,-3.84509855,5.27358702e-03,5.84618876,-4.45616947,-1,-0.9923363064023317
3.41317789e+02,2.79997555e+01,-7.59293426e-07,4.62946056,3.66485071,2.50770600,-3.84509855,5.41923341e-03,5.85258272,-4.43370118,-1,-0.991970536623743
3.53828891e+02,2.79997457e+01,-7.93705514e-07,4.64094907,3.66514967,2.51285235,-3.84509855,5.59286737e-03,5.85921947,-4.41064030,-1,-0.9915951774890195
3.66623051e+02,2.79997352e+01,-8.36538845e-07,4.65448657,3.66548233,2.51895578,-3.84509855,5.80314927e-03,5.86610158,-4.38701944,-1,-0.9912113260243672
3.79612852e+02,2.79997239e+01,-8.89700890e-07,4.67033923,3.66586223,2.52612230,-3.84509855,6.05846293e-03,5.87320041,-4.36296413,-1,-0.9908216049219742
3.92644044e+02,2.79997117e+01,-9.57466087e-07,4.68931623,3.66635079,2.53463368,-3.84509855,6.38300662e-03,5.88045976,-4.33869504,-1,-0.9904306420033171
4.05439956e+02,2.79996987e+01,-1.04649253e-06,4.71220536,3.66707076,2.54463831,-3.84509854,6.82656461e-03,5.88775893,-4.31465138,-1,-0.9900467379750134
4.17927804e+02,2.79996848e+01,-1.16087042e-06,4.73823419,3.66816246,2.55546932,-3.84509854,7.44862065e-03,5.89507654,-4.29089585,-1,-0.9896720765087541
4.30846907e+02,2.79996688e+01,-1.28657264e-06,4.76367965,3.66963869,2.56523960,-3.84509853,8.22226793e-03,5.90285302,-4.26600875,-1,-0.9892844764937048
4.44850883e+02,2.79996497e+01,-1.40177671e-06,4.78547588,3.67140991,2.57259528,-3.84509853,9.06374518e-03,5.91145834,-4.23882267,-1,-0.9888643280276425
4.59792569e+02,2.79996278e+01,-1.50454321e-06,4.80406367,3.67346344,2.57778211,-3.84509852,9.98596002e-03,5.92077555,-4.20970819,-1,-0.9884160463072735
4.75372448e+02,2.79996035e+01,-1.59951970e-06,4.82081042,3.67594294,2.58119648,-3.84509852,1.10771166e-02,5.93061040,-4.17931536,-1,-0.9879486174668294
4.91406810e+02,2.79995770e+01,-1.68825850e-06,4.83637689,3.67896171,2.58294219,-3.84509851,1.24269411e-02,5.94082443,-4.14805395,-1,-0.9874675531891851
5.07778817e+02,2.79995485e+01,-1.77028226e-06,4.85098305,3.68259601,2.58297666,-3.84509851,1.41341852e-02,5.95127905,-4.11628746,-1,-0.9869763588578457
5.24426948e+02,2.79995183e+01,-1.84519084e-06,4.86479538,3.68679329,2.58148825,-3.84509851,1.62735375e-02,5.96197695,-4.08398655,-1,-0.9864768802310291
5.41351670e+02,2.79994864e+01,-1.91453483e-06,4.87802528,3.69142176,2.57884628,-3.84509850,1.88992004e-02,5.97291273,-4.05121275,-1,-0.9859691032977616
5.58590405e+02,2.79994527e+01,-1.97924938e-06,4.89071943,3.69639144,2.57525398,-3.84509851,2.20810455e-02,5.98399325,-4.01824559,-1,-0.9854519053200511
5.76139165e+02,2.79994174e+01,-2.03958390e-06,4.90292820,3.70165978,2.57082169,-3.84509851,2.59090979e-02,5.99525092,-3.98495296,-1,-0.9849254059462094
5.93972014e+02,2.79993804e+01,-2.09585750e-06,4.91474111,3.70720868,2.56563035,-3.84509851,3.05123691e-02,6.00671065,-3.95123574,-1,-0.9843903833102899
6.12122484e+02,2.79993419e+01,-2.14769668e-06,4.92611041,3.71299917,2.55973401,-3.84509850,3.60413202e-02,6.01830047,-3.91731515,-1,-0.9838458313824082
6.30590390e+02,2.79993017e+01,-2.19469992e-06,4.93701785,3.71901784,2.55315039,-3.84509850,4.27094572e-02,6.03002447,-3.88317534,-1,-0.9832917557129495
6.49354630e+02,2.79992601e+01,-2.23668518e-06,4.94748356,3.72525630,2.54590634,-3.84509850,5.07768063e-02,6.04189690,-3.84873766,-1,-0.9827287894058931
6.68424413e+02,2.79992170e+01,-2.27356889e-06,4.95750459,3.73169784,2.53803377,-3.84509850,6.05677808e-02,6.05387657,-3.81411767,-1,-0.9821566561720465
6.87816896e+02,2.79991726e+01,-2.30465452e-06,4.96702584,3.73832598,2.52953810,-3.84509850,7.24612743e-02,6.06593812,-3.77939489,-1,-0.981574841265652
7.07532910e+02,2.79991268e+01,-2.32962174e-06,4.97603235,3.74512920,2.52043492,-3.84509849,8.69753239e-02,6.07808021,-3.74455339,-1,-0.980983319754978
7.27574398e+02,2.79990799e+01,-2.34844461e-06,4.98452590,3.75209704,2.51074602,-3.84509849,1.04857478e-01,6.09029714,-3.70959718,-1,-0.9803820333459747
7.47947145e+02,2.79990319e+01,-2.36098071e-06,4.99249922,3.75921704,2.50049269,-3.84509849,1.27015261e-01,6.10257681,-3.67455427,-1,-0.9797708084765858
7.68659651e+02,2.79989829e+01,-2.36713396e-06,4.99994229,3.76647943,2.48968943,-3.84509850,1.54587404e-01,6.11490919,-3.63944822,-1,-0.979149390129096
7.89709099e+02,2.79989331e+01,-2.36699930e-06,5.00686748,3.77387561,2.47835966,-3.84509850,1.88982371e-01,6.12729385,-3.60426478,-1,-0.9785178628193764
8.11125756e+02,2.79988825e+01,-2.36078776e-06,5.01326318,3.78138980,2.46652914,-3.84509850,2.32059684e-01,6.13969467,-3.56911998,-1,-0.9778753184743465
8.32917453e+02,2.79988312e+01,-2.34847969e-06,5.01913274,3.78901251,2.45421850,-3.84509850,2.86427817e-01,6.15211678,-3.53397775,-1,-0.9772215221476858
8.55105822e+02,2.79987793e+01,-2.33061458e-06,5.02449621,3.79673028,2.44146471,-3.84509852,3.56129823e-01,6.16455544,-3.49883989,-1,-0.9765558248343102
8.77711966e+02,2.79987269e+01,-2.30750939e-06,5.02937290,3.80453102,2.42830157,-3.84509853,4.46525197e-01,6.17700629,-3.46370964,-1,-0.9758775934002387
9.00758851e+02,2.79986740e+01,-2.27982146e-06,5.03378525,3.81240382,2.41476214,-3.84509857,5.65409980e-01,6.18946237,-3.42859433,-1,-0.975186138817607
9.24268824e+02,2.79986209e+01,-2.24790866e-06,5.03775957,3.82033869,2.40087955,-3.84509855,7.22805872e-01,6.20192041,-3.39349515,-1,-0.974480790629841
9.48269769e+02,2.79985674e+01,-2.21232104e-06,5.04132302,3.82832564,2.38668739,-3.84509849,9.32839016e-01,6.21437726,-3.35840965,-1,-0.9737607122588272
9.72786529e+02,2.79985137e+01,-2.17361921e-06,5.04450458,3.83635611,2.37221722,-3.84509849,1.21484027,6.22683171,-3.32333602,-1,-0.9730251583627896
9.97847780e+02,2.79984598e+01,-2.13220977e-06,5.04733453,3.84442176,2.35750089,-3.84509850,1.59854871,6.23928376,-3.28827109,-1,-0.9722732686019635
1.02345714e+03,2.79984058e+01,-2.08870974e-06,5.04986364,3.85252145,2.34256608,-3.84509850,2.12149393,6.25173653,-3.25318968,-1,-0.9715049344288089
1.04965457e+03,2.79983518e+01,-2.04322501e-06,5.05207478,3.86064832,2.32741791,-3.84509850,2.82108522,6.26416045,-3.21819697,-1,-0.9707189569300417
1.07644071e+03,2.79982978e+01,-1.99621400e-06,5.05401272,3.86880377,2.31207598,-3.84509845,3.73437188,6.27655954,-3.18327590,-1,-0.9699153169043282
1.10383088e+03,2.79982439e+01,-1.94807154e-06,5.05570252,3.87698586,2.29655669,-3.84509846,4.88415081,6.28892966,-3.14844417,-1,-0.9690935547197396
1.13183894e+03,2.79981902e+01,-1.89910385e-06,5.05716574,3.88519325,2.28087353,-3.84509847,6.25113678,6.30126649,-3.11372655,-1,-0.9682532545473899
1.16048484e+03,2.79981366e+01,-1.84957757e-06,5.05842070,3.89342377,2.26503997,-3.84509848,7.75690156,6.31356480,-3.07915225,-1,-0.9673938178457007
1.18980879e+03,2.79980832e+01,-1.79975272e-06,5.05948074,3.90167166,2.24907419,-3.84509849,9.29738325,6.32583008,-3.04473243,-1,-0.9665140382308692
1.21985003e+03,2.79980300e+01,-1.74984616e-06,5.06035747,3.90992906,2.23299776,-3.84509849,1.07698541e+01,6.33806858,-3.01048161,-1,-0.9656127384211144
1.25067776e+03,2.79979770e+01,-1.70004360e-06,5.06105213,3.91818641,2.21683040,-3.84509850,1.21106369e+01,6.35028772,-2.97642063,-1,-0.9646878422722147
1.28235086e+03,2.79979241e+01,-1.65047217e-06,5.06156405,3.92643324,2.20059270,-3.84509849,1.33051344e+01,6.36249614,-2.94256621,-1,-0.9637375832614568
1.31494905e+03,2.79978713e+01,-1.60120740e-06,5.06188230,3.93465961,2.18429909,-3.84509850,1.43526898e+01,6.37469450,-2.90896384,-1,-0.9627595696226938
1.34854302e+03,2.79978184e+01,-1.55227599e-06,5.06199221,3.94285643,2.16796041,-3.84509851,1.52363468e+01,6.38687935,-2.87565367,-1,-0.961751680508599
1.38321072e+03,2.79977656e+01,-1.50367166e-06,5.06187463,3.95101410,2.15158627,-3.84509851,1.59413133e+01,6.39903330,-2.84267301,-1,-0.9607115772567149
1.41904970e+03,2.79977128e+01,-1.45540021e-06,5.06150621,3.95912147,2.13518731,-3.84509852,1.64639259e+01,6.41112372,-2.81003665,-1,-0.9596363331637344
1.45613828e+03,2.79976599e+01,-1.40748549e-06,5.06087036,3.96716701,2.11877832,-3.84509854,1.68323365e+01,6.42310821,-2.77768135,-1,-0.9585235984664292
1.49457362e+03,2.79976069e+01,-1.35999580e-06,5.05995524,3.97513884,2.10237709,-3.84509855,1.70749851e+01,6.43492958,-2.74547871,-1,-0.9573704581623053
1.53441882e+03,2.79975538e+01,-1.31306123e-06,5.05876906,3.98302846,2.08600477,-3.84509856,1.72184674e+01,6.44653988,-2.71322196,-1,-0.9561750191198543
1.57571722e+03,2.79975007e+01,-1.26687867e-06,5.05733951,3.99083144,2.06968403,-3.84509864,1.72797281e+01,6.45792898,-2.68067958,-1,-0.9549359810487501
1.61851711e+03,2.79974476e+01,-1.22171250e-06,5.05571101,3.99854729,2.05343808,-3.84509878,1.72721615e+01,6.46913878,-2.64768049,-1,-0.9536518951483504
1.66282222e+03,2.79973971e+01,-1.05007837e-06,5.05394561,4.00618163,2.03728671,-3.84509885,1.53422700e+01,6.48026869,-2.61416515,-1,-0.9523226495108812
1.70865551e+03,2.79973554e+01,-8.13325291e-07,5.05210237,4.01374078,2.02124678,-3.84509857,1.22497795e+01,6.49142406,-2.58015547,-1,-0.9509475552884911
1.75606024e+03,2.79973233e+01,-5.91120336e-07,5.05023426,4.02123006,2.00533416,-3.84509858,9.15462065,6.50267637,-2.54570305,-1,-0.9495253145910206
1.80506409e+03,2.79973005e+01,-3.82610833e-07,5.04839194,4.02865455,1.98956402,-3.84509873,6.07907996,6.51405799,-2.51084181,-1,-0.9480550969607813
1.85570490e+03,2.79972871e+01,-1.86950872e-07,5.04662592,4.03601836,1.97395340,-3.84509864,3.04176561,6.52557404,-2.47559216,-1,-0.9465357671189096
1.90798833e+03,2.79972829e+01,-1.87949528e-08,5.04501465,4.04333144,1.95852161,-3.84509874,3.12699206e-01,6.53723703,-2.43992915,-1,-0.9449671552536096
1.96202387e+03,2.79972821e+01,-1.61646945e-08,5.04356522,4.05058615,1.94328746,-3.84509881,2.75107437e-01,6.54901865,-2.40393809,-1,-0.94334597643669
2.01781044e+03,2.79972812e+01,-1.63504782e-08,5.04237653,4.05779503,1.92827536,-3.84509889,2.84460930e-01,6.56092735,-2.36760065,-1,-0.9416722630704019
2.07536018e+03,2.79972802e+01,-1.65634567e-08,5.04152117,4.06496620,1.91350533,-3.84509900,2.94431667e-01,6.57295959,-2.33093688,-1,-0.9399456509294437
2.13467308e+03,2.79972792e+01,-1.68114977e-08,5.04107511,4.07210965,1.89899541,-3.84509911,3.05031428e-01,6.58510659,-2.29397477,-1,-0.9381661403138365
2.19573497e+03,2.79972782e+01,-1.71028468e-08,5.04110901,4.07923673,1.88475820,-3.84509923,3.16288763e-01,6.59736133,-2.25674680,-1,-0.9363341563531122
2.25851767e+03,2.79972771e+01,-1.74453340e-08,5.04167826,4.08635946,1.87079735,-3.84509935,3.28356293e-01,6.60971376,-2.21928581,-1,-0.9344505445060017
2.32299212e+03,2.79972760e+01,-1.78459922e-08,5.04281636,4.09348996,1.85710540,-3.84509953,3.41496706e-01,6.62215186,-2.18163358,-1,-0.9325161766330696
2.38910814e+03,2.79972748e+01,-1.83093229e-08,5.04451947,4.10063934,1.84365821,-3.84509969,3.55974036e-01,6.63466851,-2.14382410,-1,-0.9305325582388974
2.45682686e+03,2.79972735e+01,-1.88374989e-08,5.04675167,4.10781713,1.83041872,-3.84509966,3.72012477e-01,6.64725263,-2.10589123,-1,-0.928500855504495
2.52612044e+03,2.79972722e+01,-1.94299420e-08,5.04944670,4.11503080,1.81733891,-3.84509954,3.89666627e-01,6.65989888,-2.06785642,-1,-0.9264219036878847
2.59699091e+03,2.79972708e+01,-2.00839086e-08,5.05251802,4.12228610,1.80436397,-3.84509939,4.08923977e-01,6.67260032,-2.02974741,-1,-0.9242956418848356
2.66944879e+03,2.79972693e+01,-2.07937741e-08,5.05586140,4.12958594,1.79143598,-3.84509924,4.29720702e-01,6.68535427,-1.99156803,-1,-0.9221217544734226
2.74351609e+03,2.79972677e+01,-2.15520262e-08,5.05936984,4.13693107,1.77849993,-3.84509914,4.52053295e-01,6.69815854,-1.95332852,-1,-0.9198995811077743
2.81924421e+03,2.79972660e+01,-2.23503975e-08,5.06294241,4.14432048,1.76550739,-3.84509907,4.76003432e-01,6.71101040,-1.91503094,-1,-0.9176275796807665
2.89671251e+03,2.79972643e+01,-2.31803739e-08,5.06648843,4.15175230,1.75241677,-3.84509904,5.01697401e-01,6.72390937,-1.87667434,-1,-0.9153033692270026
2.97598208e+03,2.79972624e+01,-2.40327555e-08,5.06993075,4.15922255,1.73919743,-3.84509903,5.29179682e-01,6.73685296,-1.83825769,-1,-0.9129251169191637
3.05713344e+03,2.79972604e+01,-2.48992957e-08,5.07320875,4.16672699,1.72582755,-3.84509905,5.58373648e-01,6.74984055,-1.79977796,-1,-0.9104904069894357
3.14025809e+03,2.79972583e+01,-2.57724148e-08,5.07627640,4.17426078,1.71229380,-3.84509909,5.89158528e-01,6.76286731,-1.76124189,-1,-0.9079964942471211
3.22544998e+03,2.79972560e+01,-2.66455883e-08,5.07910234,4.18181861,1.69859111,-3.84509923,6.21407022e-01,6.77593166,-1.72264390,-1,-0.9054405599964161
3.31281014e+03,2.79972537e+01,-2.75133769e-08,5.08166780,4.18939500,1.68472105,-3.84509931,6.55106863e-01,6.78903011,-1.68399200,-1,-0.9028195731267614
3.40244125e+03,2.79972512e+01,-2.83714694e-08,5.08396516,4.19698428,1.67069117,-3.84509936,6.90290227e-01,6.80216034,-1.64528093,-1,-0.9001304530241587
3.49438117e+03,2.79972485e+01,-2.92187242e-08,5.08601394,4.20458628,1.65651157,-3.84509936,7.27052000e-01,6.81533118,-1.60647984,-1,-0.8973720638097032
3.58886886e+03,2.79972457e+01,-3.00512530e-08,5.08779067,4.21218591,1.64220067,-3.84509952,7.65398251e-01,6.82851560,-1.56766068,-1,-0.894537236185372
3.68594577e+03,2.79972427e+01,-3.08676549e-08,5.08932733,4.21978387,1.62777308,-3.84509932,8.05323975e-01,6.84172233,-1.52879192,-1,-0.8916247265647776
3.78574654e+03,2.79972396e+01,-3.16690627e-08,5.09064049,4.22737598,1.61324543,-3.84509941,8.46905957e-01,6.85494809,-1.48987579,-1,-0.8886304954673137
3.88835941e+03,2.79972363e+01,-3.24568099e-08,5.09175574,4.23495882,1.59863737,-3.84509968,8.90206597e-01,6.86819010,-1.45091180,-1,-0.8855518955090765
3.99389319e+03,2.79972328e+01,-3.32328920e-08,5.09269812,4.24252961,1.58396700,-3.84509968,9.35329282e-01,6.88144479,-1.41190660,-1,-0.8823856621632924
4.10246866e+03,2.79972292e+01,-3.39997034e-08,5.09349225,4.25008607,1.56925114,-3.84509965,9.82405889e-01,6.89471306,-1.37285680,-1,-0.8791281717782405
