star_age,star_mass,star_mdot,log_L,log_Teff,log_R,log_surf_z,v_wind_Km_per_s,log_center_T,log_center_Rho,phase,x
7.47888516e+01,7.49978807e+01,-5.55211429e-07,5.96372990,4.11221329,2.28011553,-3.84509851,2.55798434,6.57212439,-2.80820017,-1,-1.0
7.70836889e+01,7.49978795e+01,-5.52618181e-07,5.96227479,4.11350033,2.27681388,-3.84509851,2.56422745,6.57343466,-2.80436923,-1,-0.9998423970285928
7.93785262e+01,7.49978782e+01,-5.50024933e-07,5.96081968,4.11478738,2.27351223,-3.84509851,2.57047056,6.57474493,-2.80053829,-1,-0.9996847940571855
8.16733635e+01,7.49978770e+01,-5.47431684e-07,5.95936456,4.11607443,2.27021058,-3.84509851,2.57671367,6.57605520,-2.79670735,-1,-0.9995271910857783
8.39682007e+01,7.49978757e+01,-5.44838436e-07,5.95790945,4.11736147,2.26690893,-3.84509852,2.58295678,6.57736548,-2.79287641,-1,-0.9993695881212387
8.65222694e+01,7.49978743e+01,-5.42628414e-07,5.95656412,4.11869076,2.26357769,-3.84509852,2.59079665,6.57880212,-2.78866633,-1,-0.9991941818663821
8.91155922e+01,7.49978730e+01,-5.40476423e-07,5.95523541,4.12002644,2.26024198,-3.84509852,2.59887831,6.58025791,-2.78439885,-1,-0.9990160797503418
9.17089150e+01,7.49978716e+01,-5.38324431e-07,5.95390671,4.12136212,2.25690626,-3.84509852,2.60695997,6.58171370,-2.78013137,-1,-0.9988379776343015
9.43022377e+01,7.49978702e+01,-5.36172439e-07,5.95257800,4.12269780,2.25357055,-3.84509852,2.61504163,6.58316948,-2.77586388,-1,-0.9986598755251289
9.70449853e+01,7.49978687e+01,-5.33957884e-07,5.95128441,4.12406190,2.25019555,-3.84509852,2.62286747,6.58469869,-2.77137849,-1,-0.9984715113340902
9.99487633e+01,7.49978672e+01,-5.31675907e-07,5.95002865,4.12545663,2.24677822,-3.84509852,2.63041762,6.58630702,-2.76665826,-1,-0.9982720880280863
1.02852541e+02,7.49978657e+01,-5.29393929e-07,5.94877290,4.12685135,2.24336089,-3.84509852,2.63796778,6.58791535,-2.76193803,-1,-0.9980726647426855
1.05756319e+02,7.49978641e+01,-5.27111952e-07,5.94751715,4.12824608,2.23994357,-3.84509853,2.64551793,6.58952368,-2.75721780,-1,-0.9978732414366817
1.08961934e+02,7.49978625e+01,-5.25626227e-07,5.94634625,4.12969939,2.23645149,-3.84509853,2.65720111,6.59127272,-2.75208206,-1,-0.997653088814451
1.12187399e+02,7.49978608e+01,-5.24192869e-07,5.94518094,4.13115656,2.23295450,-3.84509853,2.66915611,6.59303101,-2.74691898,-1,-0.9974315729500496
1.15412865e+02,7.49978591e+01,-5.22759511e-07,5.94401563,4.13261373,2.22945750,-3.84509853,2.68111110,6.59478931,-2.74175591,-1,-0.997210057016971
1.18680904e+02,7.49978574e+01,-5.21359407e-07,5.94285944,4.13407915,2.22594857,-3.84509853,2.69329512,6.59656686,-2.73653608,-1,-0.9969856172899914
1.22290953e+02,7.49978555e+01,-5.20226444e-07,5.94177660,4.13561086,2.22234372,-3.84509853,2.70731893,6.59849908,-2.73086035,-1,-0.9967376892781337
1.25901002e+02,7.49978537e+01,-5.19093481e-07,5.94069375,4.13714258,2.21873888,-3.84509853,2.72134273,6.60043131,-2.72518461,-1,-0.996489761266276
1.29511051e+02,7.49978518e+01,-5.17960518e-07,5.93961090,4.13867429,2.21513403,-3.84509853,2.73536654,6.60236353,-2.71950888,-1,-0.9962418332544183
1.33123819e+02,7.49978499e+01,-5.16827578e-07,5.93852836,4.14020655,2.21152822,-3.84509853,2.74939652,6.60429699,-2.71382952,-1,-0.995993718509288
1.37127913e+02,7.49978479e+01,-5.15697858e-07,5.93748936,4.14181875,2.20778432,-3.84509853,2.76431443,6.60640786,-2.70762811,-1,-0.9957187285951037
1.41132008e+02,7.49978458e+01,-5.14568139e-07,5.93645037,4.14343096,2.20404042,-3.84509853,2.77923234,6.60851873,-2.70142671,-1,-0.9954437386122422
1.45136102e+02,7.49978438e+01,-5.13438420e-07,5.93541137,4.14504316,2.20029653,-3.84509853,2.79415026,6.61062961,-2.69522530,-1,-0.9951687486980579
1.49413029e+02,7.49978416e+01,-5.12588307e-07,5.93440621,4.14670920,2.19646185,-3.84509854,2.81124477,6.61285951,-2.68867417,-1,-0.9948750213807914
1.53776905e+02,7.49978393e+01,-5.11827300e-07,5.93341183,4.14839241,2.19259825,-3.84509854,2.82903294,6.61512736,-2.68201157,-1,-0.9945753226507539
1.58140780e+02,7.49978371e+01,-5.11066294e-07,5.93241745,4.15007561,2.18873465,-3.84509854,2.84682110,6.61739520,-2.67534898,-1,-0.9942756239893935
1.62845937e+02,7.49978347e+01,-5.10604327e-07,5.93147320,4.15182198,2.18476980,-3.84509854,2.86716503,6.61980277,-2.66827463,-1,-0.9939524870401476
1.67595975e+02,7.49978323e+01,-5.10181684e-07,5.93053555,4.15357665,2.18079163,-3.84509855,2.88784505,6.62222871,-2.66114613,-1,-0.993626267790052
1.72346012e+02,7.49978299e+01,-5.09759042e-07,5.92959790,4.15533132,2.17681345,-3.84509855,2.90852508,6.62465465,-2.65401763,-1,-0.9933000486086336
1.77425904e+02,7.49978273e+01,-5.09489288e-07,5.92870112,4.15714392,2.17273987,-3.84509855,2.93102750,6.62721037,-2.64650729,-1,-0.9929511759135506
1.82637442e+02,7.49978246e+01,-5.09280551e-07,5.92782066,4.15897963,2.16862821,-3.84509856,2.95425725,6.62981787,-2.63884457,-1,-0.9925932621414494
1.87848980e+02,7.49978220e+01,-5.09071815e-07,5.92694019,4.16081535,2.16451656,-3.84509856,2.97748700,6.63242538,-2.63118185,-1,-0.992235348369348
1.93177688e+02,7.49978193e+01,-5.08921656e-07,5.92606805,4.16267246,2.16036625,-3.84509857,3.00146435,6.63507955,-2.62338171,-1,-0.9918693876911938
1.98860434e+02,7.49978164e+01,-5.08948495e-07,5.92522108,4.16459425,2.15609918,-3.84509857,3.02770066,6.63787472,-2.61516636,-1,-0.9914791126789511
2.04543180e+02,7.49978135e+01,-5.08975335e-07,5.92437410,4.16651604,2.15183212,-3.84509857,3.05393696,6.64066989,-2.60695102,-1,-0.9910888376667082
2.10424611e+02,7.49978105e+01,-5.09102585e-07,5.92354437,4.16847198,2.14750537,-3.84509857,3.08145070,6.64354070,-2.59851295,-1,-0.990684917527478
2.16535443e+02,7.49978074e+01,-5.09345769e-07,5.92273454,4.17046736,2.14310970,-3.84509857,3.11043938,6.64649885,-2.58981773,-1,-0.9902652427727707
2.22646275e+02,7.49978043e+01,-5.09588954e-07,5.92192471,4.17246273,2.13871404,-3.84509857,3.13942805,6.64945700,-2.58112252,-1,-0.9898455680180634
2.29208964e+02,7.49978009e+01,-5.09950683e-07,5.92116568,4.17452804,2.13420392,-3.84509858,3.17055102,6.65257431,-2.57195830,-1,-0.989394860995469
2.35777870e+02,7.49977976e+01,-5.10314044e-07,5.92040735,4.17659430,2.12969222,-3.84509858,3.20170336,6.65569381,-2.56278762,-1,-0.9889437270068002
2.42467444e+02,7.49977941e+01,-5.10722713e-07,5.91966183,4.17867823,2.12515161,-3.84509859,3.23351488,6.65885407,-2.55349689,-1,-0.9884843058792768
2.49583535e+02,7.49977905e+01,-5.11291532e-07,5.91896156,4.18082457,2.12050878,-3.84509860,3.26765639,6.66215839,-2.54378176,-1,-0.9879955927637961
2.56699626e+02,7.49977869e+01,-5.11860351e-07,5.91826130,4.18297092,2.11586596,-3.84509861,3.30179790,6.66546270,-2.53406664,-1,-0.9875068796483153
2.63902405e+02,7.49977832e+01,-5.12513417e-07,5.91756725,4.18513076,2.11119926,-3.84509862,3.33679762,6.66879711,-2.52426281,-1,-0.9870122130448094
2.71571854e+02,7.49977792e+01,-5.13620012e-07,5.91690669,4.18736321,2.10640407,-3.84509862,3.37641736,6.67229355,-2.51398143,-1,-0.9864854968582386
2.79241303e+02,7.49977753e+01,-5.14726607e-07,5.91624612,4.18959567,2.10160888,-3.84509862,3.41603709,6.67578999,-2.50370005,-1,-0.9859587806716678
2.87259885e+02,7.49977711e+01,-5.15928272e-07,5.91561682,4.19187877,2.09672802,-3.84509862,3.45751843,6.67940179,-2.49307996,-1,-0.9854080870126128
2.95425513e+02,7.49977669e+01,-5.17169978e-07,5.91500068,4.19418321,2.09181108,-3.84509862,3.49978383,6.68306218,-2.48231722,-1,-0.9848472946478529
3.03840421e+02,7.49977625e+01,-5.18500546e-07,5.91440890,4.19652180,2.08683800,-3.84509862,3.54350696,6.68680110,-2.47132253,-1,-0.9842693824338068
3.12483974e+02,7.49977580e+01,-5.19912618e-07,5.91383948,4.19889174,2.08181342,-3.84509863,3.58856713,6.69061205,-2.46011509,-1,-0.9836757675242374
3.21378786e+02,7.49977534e+01,-5.21298271e-07,5.91329946,4.20129189,2.07674310,-3.84509864,3.63421604,6.69449489,-2.44869629,-1,-0.9830648968532276
3.30543772e+02,7.49977486e+01,-5.22655517e-07,5.91279105,4.20372455,2.07162358,-3.84509866,3.68049803,6.69845505,-2.43705024,-1,-0.9824354713917773
3.39816636e+02,7.49977437e+01,-5.24053826e-07,5.91229570,4.20616992,2.06648517,-3.84509867,3.72741248,6.70244563,-2.42531454,-1,-0.9817986371726999
3.49603586e+02,7.49977385e+01,-5.25647821e-07,5.91186255,4.20867587,2.06125669,-3.84509869,3.77734089,6.70658119,-2.41315164,-1,-0.9811264969730377
3.59390537e+02,7.49977334e+01,-5.27241817e-07,5.91142940,4.21118182,2.05602821,-3.84509872,3.82726930,6.71071675,-2.40098875,-1,-0.9804543567046983
3.69541985e+02,7.49977280e+01,-5.29406793e-07,5.91103086,4.21373449,2.05072361,-3.84509872,3.88279227,6.71495870,-2.38851274,-1,-0.9797571838075668
3.79958041e+02,7.49977224e+01,-5.31986273e-07,5.91065744,4.21632107,2.04536374,-3.84509871,3.94237661,6.71927789,-2.37580942,-1,-0.97904183837722
3.90635313e+02,7.49977167e+01,-5.34605689e-07,5.91031298,4.21893875,2.03995615,-3.84509871,4.00334435,6.72366906,-2.36289477,-1,-0.9783085533666777
4.01618181e+02,7.49977108e+01,-5.37271825e-07,5.91000238,4.22159281,2.03449272,-3.84509872,4.06593053,6.72814445,-2.34973289,-1,-0.977554280882361
4.12904511e+02,7.49977047e+01,-5.40040594e-07,5.90972813,4.22428127,2.02897869,-3.84509873,4.13057091,6.73269970,-2.33633644,-1,-0.9767791674813879
4.24432949e+02,7.49976984e+01,-5.42891245e-07,5.90948287,4.22699716,2.02342427,-3.84509874,4.19685018,6.73731868,-2.32275286,-1,-0.9759874267839169
4.36415913e+02,7.49976919e+01,-5.45554735e-07,5.90930076,4.22975865,2.01781024,-3.84509875,4.26345133,6.74204597,-2.30885016,-1,-0.9751644705191456
4.48539372e+02,7.49976852e+01,-5.48160374e-07,5.90913818,4.23253423,2.01217778,-3.84509877,4.33015198,6.74680673,-2.29484883,-1,-0.974331865452924
4.61172879e+02,7.49976782e+01,-5.50998027e-07,5.90904619,4.23535953,2.00648119,-3.84509876,4.40073789,6.75168397,-2.28050589,-1,-0.9734642317246007
4.74006091e+02,7.49976711e+01,-5.53926523e-07,5.90898184,4.23820429,2.00075950,-3.84509874,4.47284504,6.75660682,-2.26602919,-1,-0.9725828828185588
4.87124526e+02,7.49976637e+01,-5.57512883e-07,5.90894988,4.24108024,1.99499161,-3.84509874,4.55174433,6.76159831,-2.25135153,-1,-0.9716819455990823
5.00670692e+02,7.49976561e+01,-5.62085800e-07,5.90896647,4.24400296,1.98915446,-3.84509878,4.64082939,6.76669275,-2.23637251,-1,-0.9707516330175429
5.14537042e+02,7.49976482e+01,-5.66670160e-07,5.90902455,4.24695975,1.98326992,-3.84509879,4.73179035,6.77186208,-2.22117206,-1,-0.9697993310994186
5.28719855e+02,7.49976401e+01,-5.71265829e-07,5.90912361,4.24995021,1.97733855,-3.84509879,4.82460540,6.77710546,-2.20575275,-1,-0.968825295392524
5.43386873e+02,7.49976316e+01,-5.76031448e-07,5.90928624,4.25298949,1.97134129,-3.84509879,4.92160792,6.78245440,-2.19002460,-1,-0.9678180058480829
5.58300742e+02,7.49976229e+01,-5.80745808e-07,5.90948239,4.25605239,1.96531356,-3.84509880,5.01952614,6.78785436,-2.17414719,-1,-0.9667937632712438
5.73757457e+02,7.49976138e+01,-5.85032506e-07,5.90975482,4.25916433,1.95922590,-3.84509883,5.11667383,6.79336011,-2.15796022,-1,-0.965732239557909
5.89476357e+02,7.49976046e+01,-5.89456815e-07,5.91006096,4.26229978,1.95310807,-3.84509886,5.21650197,6.79891461,-2.14163147,-1,-0.964652709716184
6.05723451e+02,7.49975948e+01,-5.94158353e-07,5.91043503,4.26548259,1.94692948,-3.84509888,5.32173010,6.80456731,-2.12501712,-1,-0.9635369049961139
6.22142594e+02,7.49975850e+01,-5.99408170e-07,5.91082658,4.26868324,1.94072397,-3.84509890,5.43313488,6.81025500,-2.10830015,-1,-0.962409284434621
6.39175439e+02,7.49975746e+01,-6.06613718e-07,5.91128053,4.27194748,1.93442245,-3.84509887,5.56657197,6.81606752,-2.09121714,-1,-0.9612395165458391
6.56553015e+02,7.49975639e+01,-6.13758935e-07,5.91176862,4.27524458,1.92807229,-3.84509882,5.70218039,6.82194302,-2.07395119,-1,-0.960046073501552
6.74285151e+02,7.49975529e+01,-6.20842101e-07,5.91229183,4.27857548,1.92167210,-3.84509873,5.84002203,6.82788331,-2.05649711,-1,-0.9588282802736846
6.92638765e+02,7.49975413e+01,-6.28055748e-07,5.91287526,4.28196670,1.91518138,-3.84509870,5.98425975,6.83393851,-2.03870892,-1,-0.9575678056847183
7.11375621e+02,7.49975293e+01,-6.34823273e-07,5.91349052,4.28538998,1.90864246,-3.84509868,6.12738218,6.84005184,-2.02075124,-1,-0.9562810111130815
7.30492075e+02,7.49975171e+01,-6.41088276e-07,5.91413668,4.28884440,1.90205668,-3.84509868,6.26881727,6.84622127,-2.00262988,-1,-0.9549681468184449
7.50281199e+02,7.49975041e+01,-6.47668236e-07,5.91482238,4.29235482,1.89537870,-3.84509868,6.41933856,6.85248895,-1.98422390,-1,-0.9536090854401299
7.70255975e+02,7.49974911e+01,-6.54335122e-07,5.91551899,4.29588069,1.88867528,-3.84509868,6.57236758,6.85878374,-1.96573936,-1,-0.9522372740046114
7.90944481e+02,7.49974772e+01,-6.63769143e-07,5.91624118,4.29947360,1.88185053,-3.84509866,6.76127046,6.86519516,-1.94691581,-1,-0.950816445600098
8.11961075e+02,7.49974630e+01,-6.73602956e-07,5.91697322,4.30309623,1.87497130,-3.84509865,6.95816462,6.87165741,-1.92794387,-1,-0.9493730850345102
8.33532450e+02,7.49974483e+01,-6.83088401e-07,5.91771967,4.30676778,1.86800143,-3.84509864,7.15858938,6.87820237,-1.90872974,-1,-0.9478916236701947
8.55696332e+02,7.49974329e+01,-6.92512129e-07,5.91847289,4.31048895,1.86093569,-3.84509864,7.36625628,6.88482909,-1.88927773,-1,-0.9463694705915778
8.78318360e+02,7.49974169e+01,-7.01966060e-07,5.91922702,4.31424825,1.85379416,-3.84509863,7.58064466,6.89151854,-1.86964361,-1,-0.9448158533342419
9.01443319e+02,7.49974005e+01,-7.11190431e-07,5.91997672,4.31804688,1.84657175,-3.84509863,7.79961200,6.89827144,-1.84982488,-1,-0.9432276961903473
9.25185452e+02,7.49973833e+01,-7.19307626e-07,5.92071020,4.32188692,1.83925842,-3.84509863,8.01509300,6.90508734,-1.82982099,-1,-0.9415971532719686
9.49563621e+02,7.49973655e+01,-7.27568805e-07,5.92141639,4.32576858,1.83184820,-3.84509864,8.24148603,6.91196775,-1.80962933,-1,-0.9399229291899963
9.74222636e+02,7.49973473e+01,-7.35893562e-07,5.92211054,4.32966862,1.82439519,-3.84509864,8.47269735,6.91887665,-1.78935476,-1,-0.9382294173946388
9.99745145e+02,7.49973281e+01,-7.47614579e-07,5.92276799,4.33363427,1.81679260,-3.84509863,8.75806742,6.92589287,-1.76876434,-1,-0.936476603259986
1.02573246e+03,7.49973084e+01,-7.59042956e-07,5.92340128,4.33763038,1.80911702,-3.84509863,9.04876963,6.93295727,-1.74803259,-1,-0.9346918675565459
1.05228176e+03,7.49972879e+01,-7.69976640e-07,5.92400373,4.34166213,1.80135476,-3.84509862,9.34446336,6.94007812,-1.72713565,-1,-0.9328685363039195
1.07942653e+03,7.49972667e+01,-7.80618169e-07,5.92457092,4.34573016,1.79350230,-3.84509862,9.64834751,6.94725717,-1.70606934,-1,-0.9310043098464854
1.10742025e+03,7.49972445e+01,-7.89347628e-07,5.92507680,4.34983930,1.78553696,-3.84509863,9.94499749,6.95450110,-1.68480976,-1,-0.9290817798907701
1.13599748e+03,7.49972216e+01,-7.98104806e-07,5.92553864,4.35397377,1.77749894,-3.84509865,1.02533319e+01,6.96178654,-1.66342719,-1,-0.927119176109409
1.16501182e+03,7.49971982e+01,-8.06882749e-07,5.92596750,4.35812722,1.76940647,-3.84509866,1.05704194e+01,6.96910307,-1.64195249,-1,-0.9251265528426439
1.19494490e+03,7.49971955e+01,-2.79095942e-07,5.92634144,4.36232927,1.76118933,-3.84509873,3.66871318,6.97650348,-1.62023107,-1,-0.9230708330966858
1.22546276e+03,7.49971946e+01,-2.80099982e-08,5.92667774,4.36655819,1.75289965,-3.84509881,3.82568260e-01,6.98395126,-1.59836868,-1,-0.9209749523050538
1.25665928e+03,7.49971937e+01,-2.99410433e-08,5.92697021,4.37081598,1.74453030,-3.84509888,4.17632202e-01,6.99145038,-1.57635456,-1,-0.9188324630533906
1.28858648e+03,7.49971927e+01,-3.18474570e-08,5.92721588,4.37510104,1.73608302,-3.84509895,4.53852501e-01,6.99899892,-1.55419460,-1,-0.9166397927544052
1.32129408e+03,7.49971916e+01,-3.35312861e-08,5.92741114,4.37940926,1.72756420,-3.84509899,4.88485439e-01,7.00659204,-1.53189611,-1,-0.914393526778338
1.35493402e+03,7.49971904e+01,-3.53024483e-08,5.92755135,4.38373994,1.71897294,-3.84509903,5.26275165e-01,7.01423144,-1.50945984,-1,-0.9120832303133285
1.38905730e+03,7.49971891e+01,-3.73116424e-08,5.92766654,4.38808465,1.71034111,-3.84509906,5.68795592e-01,7.02189942,-1.48693824,-1,-0.9097397394165395
1.42402721e+03,7.49971877e+01,-3.99954886e-08,5.92774261,4.39245710,1.70163426,-3.84509909,6.23739260e-01,7.02962357,-1.46424860,-1,-0.9073381043525443
1.45994936e+03,7.49971861e+01,-4.25872178e-08,5.92777865,4.39685614,1.69285419,-3.84509911,6.80189845e-01,7.03740389,-1.44138948,-1,-0.9048710721235765
1.49666749e+03,7.49971845e+01,-4.51800165e-08,5.92778317,4.40127430,1.68402014,-3.84509913,7.39161850e-01,7.04522648,-1.41840081,-1,-0.9023493742269466
1.53430538e+03,7.49971827e+01,-4.75254499e-08,5.92775370,4.40570765,1.67513870,-3.84509917,7.96824868e-01,7.05308697,-1.39529601,-1,-0.8997645098003925
1.57276391e+03,7.49971807e+01,-4.97774233e-08,5.92769849,4.41015185,1.66622270,-3.84509923,8.55408106e-01,7.06097639,-1.37209318,-1,-0.8971232861267338
1.61206068e+03,7.49971787e+01,-5.20993465e-08,5.92762026,4.41460639,1.65727450,-3.84509929,9.17678438e-01,7.06889371,-1.34878737,-1,-0.8944244944874713
1.65240688e+03,7.49971764e+01,-5.53321175e-08,5.92752152,4.41908450,1.64826890,-3.84509931,1.00007517,7.07686425,-1.32529438,-1,-0.8916536309473888
1.69361906e+03,7.49971740e+01,-5.86512533e-08,5.92740742,4.42357891,1.63922304,-3.84509932,1.08767935,7.08487389,-1.30166391,-1,-0.8888232943365229
1.73578476e+03,7.49971714e+01,-6.18908405e-08,5.92727810,4.42808870,1.63013880,-3.84509934,1.17811253,7.09292275,-1.27789559,-1,-0.8859274726538846
1.77898659e+03,7.49971685e+01,-6.49443215e-08,5.92713540,4.43261054,1.62102378,-3.84509937,1.26954006,7.10100695,-1.25399986,-1,-0.8829604924770192
1.82309063e+03,7.49971656e+01,-6.76796374e-08,5.92698407,4.43713884,1.61189151,-3.84509942,1.35868103,7.10911551,-1.23001195,-1,-0.8799315510548694
1.86855344e+03,7.49971623e+01,-7.05089363e-08,5.92682641,4.44167603,1.60273830,-3.84509946,1.45557263,7.11725967,-1.20589422,-1,-0.8768092931307353
1.91485915e+03,7.49971588e+01,-7.40886959e-08,5.92666620,4.44622690,1.59355644,-3.84509947,1.57281145,7.12543990,-1.18165994,-1,-0.873629147205304
1.96221374e+03,7.49971551e+01,-7.80985784e-08,5.92650309,4.45079298,1.58434275,-3.84509947,1.70520731,7.13366164,-1.15729046,-1,-0.8703769671515057
2.01068735e+03,7.49971512e+01,-8.19387260e-08,5.92633772,4.45537221,1.57510160,-3.84509948,1.84113428,7.14192207,-1.13279227,-1,-0.867047935951413
2.06033568e+03,7.49971469e+01,-8.56224497e-08,5.92617210,4.45996208,1.56583904,-3.84509951,1.98094883,7.15021729,-1.10817505,-1,-0.8636382282856853
2.11113774e+03,7.49971424e+01,-8.87966706e-08,5.92600924,4.46455677,1.55656823,-3.84509957,2.11588141,7.15853631,-1.08347586,-1,-0.8601492856884868
2.16345455e+03,7.49971375e+01,-9.20458883e-08,5.92585478,4.46915874,1.54728706,-3.84509966,2.26135847,7.16688810,-1.05866335,-1,-0.8565563143216065
2.21665240e+03,7.49971324e+01,-9.59438169e-08,5.92570318,4.47377093,1.53798689,-3.84509972,2.42907249,7.17526878,-1.03375769,-1,-0.8529028356055
2.27108671e+03,7.49971269e+01,-1.00516515e-07,5.92555452,4.47839746,1.52865948,-3.84509973,2.62256901,7.18368946,-1.00872289,-1,-0.8491644402942055
2.32682358e+03,7.49971210e+01,-1.04824936e-07,5.92540797,4.48303498,1.51931117,-3.84509977,2.81934960,7.19214411,-9.83574981e-01,-1,-0.8453365888256329
2.38389930e+03,7.49971148e+01,-1.08961492e-07,5.92526609,4.48768242,1.50994536,-3.84509981,3.02168223,7.20063173,-9.58319314e-01,-1,-0.84141678890465
2.44242006e+03,7.49971082e+01,-1.12440125e-07,5.92513220,4.49233385,1.50057556,-3.84509993,3.21594982,7.20914202,-9.32989333e-01,-1,-0.837397747700722
2.50253529e+03,7.49971011e+01,-1.15958448e-07,5.92500772,4.49698954,1.49120192,-3.84510008,3.42216009,7.21767628,-9.07573017e-01,-1,-0.833269202781729
2.56368793e+03,7.49970938e+01,-1.20068376e-07,5.92488724,4.50165371,1.48181336,-3.84510017,3.65432375,7.22623620,-8.82074925e-01,-1,-0.829069411461709
2.62627402e+03,7.49970859e+01,-1.24940438e-07,5.92477116,4.50633169,1.47239934,-3.84510018,3.92145603,7.23483515,-8.56454653e-01,-1,-0.8247711748273463
2.69035342e+03,7.49970776e+01,-1.29458552e-07,5.92465981,4.51102073,1.46296561,-3.84510022,4.19084866,7.24346825,-8.30724277e-01,-1,-0.8203703818622005
