star_age,star_mass,star_mdot,log_L,log_Teff,log_R,log_surf_z,v_wind_Km_per_s,log_center_T,log_center_Rho,phase,x
1.40099921e+02,8.49998593e+01,-8.75860528e-07,6.03133280,4.23272309,2.07289738,-3.84509853,5.73700217,6.75552429,-2.29447094,-1,-1.0
1.43832828e+02,8.49998561e+01,-8.75508627e-07,6.03082833,4.23379137,2.07050857,-3.84509853,5.76382344,6.75714161,-2.28976933,-1,-0.9997288620391359
1.47565734e+02,8.49998528e+01,-8.75156725e-07,6.03032387,4.23485966,2.06811977,-3.84509853,5.79064471,6.75875894,-2.28506772,-1,-0.9994577241509065
1.51298640e+02,8.49998496e+01,-8.74804824e-07,6.02981940,4.23592795,2.06573096,-3.84509853,5.81746598,6.76037626,-2.28036610,-1,-0.999186586262677
1.55031547e+02,8.49998463e+01,-8.74452922e-07,6.02931493,4.23699623,2.06334215,-3.84509854,5.84428725,6.76199358,-2.27566449,-1,-0.9989154483018129
1.58764453e+02,8.49998430e+01,-8.74101021e-07,6.02881046,4.23806452,2.06095335,-3.84509854,5.87110852,6.76361091,-2.27096288,-1,-0.9986443104135834
1.62957483e+02,8.49998394e+01,-8.74112377e-07,6.02836038,4.23921527,2.05842681,-3.84509854,5.90251558,6.76539194,-2.26578528,-1,-0.9983397516329757
1.67204334e+02,8.49998357e+01,-8.74166224e-07,6.02791667,4.24037566,2.05588417,-3.84509854,5.93445904,6.76719213,-2.26055200,-1,-0.9980312835891072
1.71451185e+02,8.49998319e+01,-8.74220071e-07,6.02747295,4.24153605,2.05334152,-3.84509854,5.96640251,6.76899232,-2.25531872,-1,-0.9977228155452386
1.75698037e+02,8.49998282e+01,-8.74273918e-07,6.02702923,4.24269645,2.05079887,-3.84509854,5.99834598,6.77079251,-2.25008544,-1,-0.9974143474287354
1.79944888e+02,8.49998245e+01,-8.74327765e-07,6.02658551,4.24385684,2.04825623,-3.84509854,6.03028945,6.77259270,-2.24485216,-1,-0.9971058793848668
1.84461754e+02,8.49998206e+01,-8.74696075e-07,6.02616448,4.24506558,2.04562824,-3.84509854,6.06592329,6.77448829,-2.23934113,-1,-0.9967777989272674
1.89237086e+02,8.49998164e+01,-8.75365399e-07,6.02576515,4.24632058,2.04291856,-3.84509855,6.10508967,6.77647521,-2.23356422,-1,-0.9964309449121717
1.94012418e+02,8.49998122e+01,-8.76034723e-07,6.02536583,4.24757559,2.04020889,-3.84509855,6.14425605,6.77846213,-2.22778731,-1,-0.996084090897076
1.98787750e+02,8.49998080e+01,-8.76704047e-07,6.02496651,4.24883060,2.03749921,-3.84509855,6.18342243,6.78044905,-2.22201040,-1,-0.9957372368819803
2.03696601e+02,8.49998037e+01,-8.77483690e-07,6.02457995,4.25010838,2.03475037,-3.84509855,6.22415667,6.78248096,-2.21610264,-1,-0.9953806847765232
2.08954799e+02,8.49997990e+01,-8.78551978e-07,6.02422681,4.25144574,2.03189908,-3.84509855,6.26899319,6.78463059,-2.20985249,-1,-0.9949987580144745
2.14212997e+02,8.49997944e+01,-8.79620267e-07,6.02387367,4.25278310,2.02904778,-3.84509855,6.31382970,6.78678023,-2.20360234,-1,-0.9946168312524256
2.19471194e+02,8.49997898e+01,-8.80688555e-07,6.02352052,4.25412047,2.02619648,-3.84509855,6.35866621,6.78892987,-2.19735219,-1,-0.9942349045630113
2.25030203e+02,8.49997849e+01,-8.81840149e-07,6.02320140,4.25550548,2.02326689,-3.84509855,6.40583453,6.79117430,-2.19082597,-1,-0.9938311285341188
2.30804864e+02,8.49997798e+01,-8.83051465e-07,6.02290668,4.25692465,2.02028118,-3.84509855,6.45467452,6.79348671,-2.18410183,-1,-0.993411688722674
2.36579526e+02,8.49997746e+01,-8.84262781e-07,6.02261196,4.25834383,2.01729547,-3.84509855,6.50351452,6.79579911,-2.17737769,-1,-0.9929922488385947
2.42354187e+02,8.49997695e+01,-8.85474097e-07,6.02231723,4.25976300,2.01430976,-3.84509855,6.55235451,6.79811151,-2.17065356,-1,-0.9925728090271498
2.48465366e+02,8.49997641e+01,-8.86918561e-07,6.02205872,4.26123303,2.01124046,-3.84509856,6.60493134,6.80052539,-2.16363326,-1,-0.9921289263875515
2.54856337e+02,8.49997584e+01,-8.88556872e-07,6.02183031,4.26274533,2.00810164,-3.84509856,6.66061508,6.80302364,-2.15636672,-1,-0.9916647211863822
2.61247308e+02,8.49997527e+01,-8.90195182e-07,6.02160191,4.26425764,2.00496283,-3.84509856,6.71629883,6.80552189,-2.14910018,-1,-0.991200515985213
2.67638280e+02,8.49997470e+01,-8.91833493e-07,6.02137350,4.26576995,2.00182401,-3.84509856,6.77198258,6.80802014,-2.14183364,-1,-0.9907363107114091
2.74134922e+02,8.49997411e+01,-8.93691593e-07,6.02115402,4.26729861,1.99865694,-3.84509856,6.83008700,6.81055053,-2.13447340,-1,-0.9902644301463847
2.81149646e+02,8.49997348e+01,-8.96627264e-07,6.02097830,4.26890748,1.99535134,-3.84509856,6.90005933,6.81323853,-2.12665378,-1,-0.9897549189366535
2.88164370e+02,8.49997285e+01,-8.99562935e-07,6.02080259,4.27051635,1.99204574,-3.84509856,6.97003167,6.81592652,-2.11883417,-1,-0.9892454077269223
2.95179093e+02,8.49997221e+01,-9.02498606e-07,6.02062687,4.27212523,1.98874013,-3.84509856,7.04000400,6.81861452,-2.11101455,-1,-0.9887358965898256
3.02603589e+02,8.49997154e+01,-9.05619329e-07,6.02048979,4.27379445,1.98533314,-3.84509856,7.11448828,6.82142097,-2.10285044,-1,-0.9881966217817784
3.10174874e+02,8.49997085e+01,-9.08806341e-07,6.02036657,4.27548530,1.98188984,-3.84509856,7.19058884,6.82426984,-2.09456293,-1,-0.9876466850231019
3.17746160e+02,8.49997015e+01,-9.11993353e-07,6.02024334,4.27717615,1.97844653,-3.84509856,7.26668940,6.82711872,-2.08627542,-1,-0.987096748191791
3.25708676e+02,8.49996942e+01,-9.15429491e-07,6.02015749,4.27892188,1.97491214,-3.84509856,7.34780258,6.83007452,-2.07767599,-1,-0.9865183945516957
3.33813383e+02,8.49996867e+01,-9.18956172e-07,6.02008521,4.28068756,1.97134464,-3.84509856,7.43073756,6.83306917,-2.06896319,-1,-0.9859297129345591
3.41918090e+02,8.49996793e+01,-9.22482854e-07,6.02001294,4.28245324,1.96777715,-3.84509856,7.51367254,6.83606382,-2.06025040,-1,-0.9853410313174225
3.50582696e+02,8.49996712e+01,-9.25788642e-07,6.01999853,4.28429301,1.96409039,-3.84509856,7.59920665,6.83920174,-2.05111994,-1,-0.9847116816972658
3.59265706e+02,8.49996631e+01,-9.29087169e-07,6.01998602,4.28613522,1.96039972,-3.84509855,7.68482619,6.84234438,-2.04197576,-1,-0.9840809953111431
3.67948715e+02,8.49996550e+01,-9.32385697e-07,6.01997351,4.28797743,1.95670904,-3.84509855,7.77044573,6.84548701,-2.03283158,-1,-0.983450308997655
3.77231839e+02,8.49996462e+01,-9.36104416e-07,6.02001663,4.28989650,1.95289246,-3.84509855,7.86468764,6.84877644,-2.02325966,-1,-0.9827760336107224
3.86603948e+02,8.49996374e+01,-9.39885439e-07,6.02006800,4.29182697,1.94905721,-3.84509856,7.96020807,6.85208764,-2.01362431,-1,-0.9820952948397711
3.95976056e+02,8.49996285e+01,-9.43666462e-07,6.02011937,4.29375744,1.94522196,-3.84509856,8.05572849,6.85539884,-2.00398896,-1,-0.9814145561414543
4.05644723e+02,8.49996193e+01,-9.48384014e-07,6.02019217,4.29572804,1.94131716,-3.84509856,8.16239780,6.85878554,-1.99413358,-1,-0.9807122770183331
4.15710727e+02,8.49996096e+01,-9.54356354e-07,6.02029370,4.29775241,1.93731917,-3.84509856,8.28400469,6.86227340,-1.98398341,-1,-0.9799811375073275
4.25776732e+02,8.49995999e+01,-9.60328694e-07,6.02039523,4.29977679,1.93332119,-3.84509856,8.40561158,6.86576127,-1.97383324,-1,-0.9792499979236874
4.36255266e+02,8.49995897e+01,-9.66335978e-07,6.02052549,4.30185337,1.92923317,-3.84509856,8.53239074,6.86934540,-1.96340295,-1,-0.9784888944883207
4.46939554e+02,8.49995793e+01,-9.72360691e-07,6.02067009,4.30395598,1.92510023,-3.84509856,8.66174962,6.87297754,-1.95283295,-1,-0.9777128462070203
4.57754510e+02,8.49995687e+01,-9.78438417e-07,6.02082312,4.30607477,1.92093918,-3.84509856,8.79320379,6.87663921,-1.94217685,-1,-0.9769273069164153
4.69027555e+02,8.49995575e+01,-9.84702000e-07,6.02100573,4.30825022,1.91667958,-3.84509856,8.93200361,6.88040436,-1.93121885,-1,-0.9761084945447092
4.80300600e+02,8.49995463e+01,-9.90965582e-07,6.02118833,4.31042567,1.91241998,-3.84509856,9.07080343,6.88416951,-1.92026086,-1,-0.9752896821730029
4.92178407e+02,8.49995344e+01,-9.96531693e-07,6.02140541,4.31267048,1.90803889,-3.84509856,9.21078864,6.88805864,-1.90894180,-1,-0.9744269431951723
5.04088828e+02,8.49995224e+01,-1.00206019e-06,6.02162436,4.31491904,1.90365125,-3.84509857,9.35083776,6.89195445,-1.89760327,-1,-0.9735618353146459
5.16277847e+02,8.49995101e+01,-1.00775537e-06,6.02185399,4.31719846,1.89920723,-3.84509857,9.49612794,6.89590442,-1.88610667,-1,-0.9726764915981824
5.28947232e+02,8.49994971e+01,-1.01373796e-06,6.02210207,4.31953110,1.89466598,-3.84509857,9.65045481,6.89994776,-1.87433753,-1,-0.9717562567211009
5.41616616e+02,8.49994842e+01,-1.01972054e-06,6.02235015,4.32186375,1.89012474,-3.84509857,9.80478168,6.90399110,-1.86256840,-1,-0.970836021916654
5.54630665e+02,8.49994707e+01,-1.02707745e-06,6.02260604,4.32423680,1.88550657,-3.84509858,9.97778284,6.90810488,-1.85059404,-1,-0.969890752530504
5.68058276e+02,8.49994567e+01,-1.03608341e-06,6.02287129,4.32665835,1.88079609,-3.84509857,1.01731912e+01,6.91230320,-1.83837343,-1,-0.9689154442611537
5.81560682e+02,8.49994426e+01,-1.04505080e-06,6.02313768,4.32908817,1.87606966,-3.84509857,1.03695301e+01,6.91651574,-1.82611134,-1,-0.9679347032918239
5.95657850e+02,8.49994276e+01,-1.05371148e-06,6.02341315,4.33158369,1.87121635,-3.84509857,1.05732685e+01,6.92084132,-1.81351939,-1,-0.9669107620617108
6.09772480e+02,8.49994126e+01,-1.06237200e-06,6.02368871,4.33408104,1.86635942,-3.84509857,1.07773264e+01,6.92517002,-1.80091835,-1,-0.9658855524873629
6.24504406e+02,8.49993967e+01,-1.07102727e-06,6.02396730,4.33664332,1.86137415,-3.84509857,1.09926800e+01,6.92960892,-1.78799604,-1,-0.9648155059056398
6.39292112e+02,8.49993807e+01,-1.07957508e-06,6.02424535,4.33921088,1.85637807,-3.84509857,1.12079663e+01,6.93405662,-1.77504788,-1,-0.9637414077696035
6.54711686e+02,8.49993638e+01,-1.08690565e-06,6.02451733,4.34183818,1.85125945,-3.84509857,1.14224905e+01,6.93860399,-1.76180675,-1,-0.9626214141957609
6.70131260e+02,8.49993469e+01,-1.09423622e-06,6.02478932,4.34446549,1.84614083,-3.84509858,1.16370148e+01,6.94315136,-1.74856563,-1,-0.9615014206219182
6.86246984e+02,8.49993290e+01,-1.10181253e-06,6.02504529,4.34715580,1.84088819,-3.84509858,1.18679642e+01,6.94780461,-1.73501542,-1,-0.9603308625171468
7.02485936e+02,8.49993109e+01,-1.10943234e-06,6.02529842,4.34985726,1.83561184,-3.84509859,1.21018210e+01,6.95247660,-1.72141050,-1,-0.9591513538040048
7.18975468e+02,8.49992924e+01,-1.11811344e-06,6.02554478,4.35258228,1.83028498,-3.84509859,1.23531332e+01,6.95718830,-1.70768925,-1,-0.9579536443293025
7.36030877e+02,8.49992730e+01,-1.12919123e-06,6.02577586,4.35536050,1.82484409,-3.84509858,1.26438645e+01,6.96198968,-1.69370527,-1,-0.9567148326423353
7.53268694e+02,8.49992584e+01,-9.85385229e-07,6.02600171,4.35815474,1.81936852,-3.84509859,1.11429091e+01,6.96681791,-1.67964303,-1,-0.9554627718352678
7.71043272e+02,8.49992577e+01,-3.85812198e-07,6.02621218,4.36099617,1.81379091,-3.84509863,4.36966710,6.97172517,-1.66535049,-1,-0.9541717236430308
7.89103704e+02,8.49992570e+01,-3.80173529e-08,6.02641089,4.36386075,1.80816110,-3.84509867,4.43770781e-01,6.97667175,-1.65094195,-1,-0.9528599125786771
8.07560957e+02,8.49992563e+01,-3.97414082e-08,6.02659327,4.36675746,1.80245886,-3.84509871,4.70564508e-01,6.98167290,-1.63637239,-1,-0.9515192786058586
8.26535941e+02,8.49992555e+01,-4.13146373e-08,6.02675053,4.36969003,1.79667235,-3.84509874,4.96591678e-01,6.98673456,-1.62162532,-1,-0.950141039483055
8.45736638e+02,8.49992546e+01,-4.28221118e-08,6.02689685,4.37263823,1.79084912,-3.84509878,5.22284659e-01,6.99182260,-1.60680086,-1,-0.948746405801651
8.65567920e+02,8.49992537e+01,-4.44146300e-08,6.02701147,4.37562711,1.78492867,-3.84509882,5.50312544e-01,6.99698140,-1.59176793,-1,-0.9473059698725481
8.85657231e+02,8.49992528e+01,-4.60419471e-08,6.02711311,4.37863264,1.77896843,-3.84509885,5.79295842e-01,7.00216917,-1.57664968,-1,-0.9458467921272403
9.06127573e+02,8.49992518e+01,-4.80377026e-08,6.02719813,4.38166451,1.77294720,-3.84509888,6.13953694e-01,7.00740349,-1.56139433,-1,-0.9443599383727618
9.27101018e+02,8.49992507e+01,-5.05199359e-08,6.02726119,4.38473116,1.76684542,-3.84509891,6.56104101e-01,7.01269929,-1.54595793,-1,-0.942836541966263
9.48527146e+02,8.49992495e+01,-5.29674100e-08,6.02730455,4.38782611,1.76067721,-3.84509893,6.99238635e-01,7.01804581,-1.53037170,-1,-0.9412802651409544
9.70283717e+02,8.49992483e+01,-5.53895110e-08,6.02733353,4.39094170,1.75446052,-3.84509895,7.43091547e-01,7.02342935,-1.51467610,-1,-0.9396999867422873
9.92721387e+02,8.49992470e+01,-5.78408010e-08,6.02733227,4.39409579,1.74815170,-3.84509896,7.89578628e-01,7.02888344,-1.49877187,-1,-0.9380702370350643
1.01550263e+03,8.49992456e+01,-6.01788193e-08,6.02731527,4.39726611,1.74180256,-3.84509896,8.35605405e-01,7.03436814,-1.48277630,-1,-0.9364155320630497
1.03882485e+03,8.49992441e+01,-6.22908431e-08,6.02727333,4.40046080,1.73539222,-3.84509896,8.80241412e-01,7.03989916,-1.46664209,-1,-0.9347215334786696
1.06265643e+03,8.49992426e+01,-6.44679083e-08,6.02721068,4.40367615,1.72893020,-3.84509897,9.27450956e-01,7.04547087,-1.45038617,-1,-0.9329905377679893
1.08696121e+03,8.49992409e+01,-6.67053949e-08,6.02712878,4.40691068,1.72242017,-3.84509898,9.77051234e-01,7.05108038,-1.43401719,-1,-0.9312251713957629
1.11167527e+03,8.49992392e+01,-6.94028364e-08,6.02703452,4.41016570,1.71586300,-3.84509899,1.03514375,7.05673038,-1.41752764,-1,-0.929430077161411
1.13695078e+03,8.49992373e+01,-7.27312531e-08,6.02692330,4.41344883,1.70924115,-3.84509900,1.10488610,7.06243591,-1.40087271,-1,-0.9275942022678767
1.16283891e+03,8.49992353e+01,-7.59660614e-08,6.02679356,4.41675691,1.70256012,-3.84509901,1.17616515,7.06819201,-1.38406755,-1,-0.9257138300060488
1.18910955e+03,8.49992332e+01,-7.91600999e-08,6.02665264,4.42008018,1.69584311,-3.84509903,1.24869028,7.07397922,-1.36716931,-1,-0.923805674308574
1.21608949e+03,8.49992310e+01,-8.23473312e-08,6.02649248,4.42343012,1.68906316,-3.84509904,1.32464136,7.07982228,-1.35010130,-1,-0.9218459989360469
1.24368815e+03,8.49992286e+01,-8.52135421e-08,6.02631744,4.42679720,1.68224148,-3.84509907,1.39835372,7.08570423,-1.33291788,-1,-0.9198413831245681
1.27158660e+03,8.49992261e+01,-8.79242118e-08,6.02613519,4.43017258,1.67539958,-3.84509909,1.47098135,7.09160504,-1.31567854,-1,-0.917814992206105
1.30054346e+03,8.49992234e+01,-9.07490123e-08,6.02593541,4.43357542,1.66849401,-3.84509911,1.55065547,7.09757071,-1.29823991,-1,-0.9157117241703823
1.32954175e+03,8.49992207e+01,-9.35782805e-08,6.02573495,4.43697934,1.66158595,-3.84509914,1.63060541,7.10353893,-1.28079347,-1,-0.9136054468859108
1.35961633e+03,8.49992177e+01,-9.76895481e-08,6.02552030,4.44041907,1.65459916,-3.84509914,1.73949437,7.10958595,-1.26311113,-1,-0.9114209937787099
1.39005361e+03,8.49992146e+01,-1.01737678e-07,6.02530215,4.44386977,1.64758869,-3.84509914,1.84983577,7.11565817,-1.24535283,-1,-0.909210196125983
1.42111743e+03,8.49992113e+01,-1.05641028e-07,6.02507804,4.44733931,1.64053756,-3.84509914,1.96208737,7.12177379,-1.22746359,-1,-0.9069538900322476
1.45300758e+03,8.49992078e+01,-1.09498965e-07,6.02484601,4.45082894,1.63344228,-3.84509915,2.07954510,7.12793741,-1.20943083,-1,-0.9046375638439315
1.48549796e+03,8.49992040e+01,-1.13065483e-07,6.02461127,4.45433045,1.62632189,-3.84509916,2.19565400,7.13413157,-1.19130328,-1,-0.9022776402291997
1.51854080e+03,8.49992002e+01,-1.16306411e-07,6.02437472,4.45784229,1.61917993,-3.84509918,2.30938263,7.14035288,-1.17309058,-1,-0.899877588939747
1.55261860e+03,8.49991960e+01,-1.19632698e-07,6.02413724,4.46137029,1.61200519,-3.84509922,2.43186367,7.14661879,-1.15474488,-1,-0.8974023638128599
1.58691089e+03,8.49991918e+01,-1.22976674e-07,6.02389957,4.46490164,1.60482366,-3.84509926,2.55615855,7.15289395,-1.13637162,-1,-0.8949115593047491
1.62234848e+03,8.49991872e+01,-1.27677181e-07,6.02366174,4.46846226,1.59758351,-3.84509927,2.71823944,7.15923754,-1.11778969,-1,-0.8923375664647089
1.65827052e+03,8.49991824e+01,-1.32357888e-07,6.02342412,4.47203354,1.59032213,-3.84509928,2.88422631,7.16560701,-1.09912892,-1,-0.8897283858246136
1.69489425e+03,8.49991774e+01,-1.36836975e-07,6.02318689,4.47561978,1.58303104,-3.84509930,3.05235223,7.17201305,-1.08035669,-1,-0.8870682382582704
1.73251307e+03,8.49991720e+01,-1.41210167e-07,6.02295153,4.47922472,1.57570348,-3.84509932,3.22710042,7.17846664,-1.06144167,-1,-0.8843358127933683
1.77087431e+03,8.49991664e+01,-1.45159730e-07,6.02271976,4.48283927,1.56835850,-3.84509937,3.39829724,7.18494742,-1.04244248,-1,-0.8815494619976436
1.80974048e+03,8.49991606e+01,-1.48797241e-07,6.02249060,4.48646005,1.56100235,-3.84509942,3.56648875,7.19144610,-1.02338761,-1,-0.878726435846605
1.84999729e+03,8.49991543e+01,-1.52501379e-07,6.02227070,4.49009715,1.55361820,-3.84509950,3.74748653,7.19799235,-1.00418484,-1,-0.8758024012070356
1.89047907e+03,8.49991480e+01,-1.56432114e-07,6.02205193,4.49373877,1.54622559,-3.84509957,3.93635074,7.20454957,-9.84948895e-01,-1,-0.8728620259763249
1.93213892e+03,8.49991412e+01,-1.61669715e-07,6.02183889,4.49740509,1.53878641,-3.84509957,4.16963762,7.21116612,-9.65534022e-01,-1,-0.8698360821800015
1.97458039e+03,8.49991341e+01,-1.66650226e-07,6.02162820,4.50108346,1.53132433,-3.84509959,4.40466929,7.21781287,-9.46024835e-01,-1,-0.8667533657791182
2.01777487e+03,8.49991266e+01,-1.71431197e-07,6.02142026,4.50477318,1.52384093,-3.84509962,4.64247782,7.22448851,-9.26426395e-01,-1,-0.863615954847696
2.06189475e+03,8.49991188e+01,-1.76067504e-07,6.02121672,4.50847632,1.51633288,-3.84509966,4.88598765,7.23119928,-9.06721635e-01,-1,-0.8604113279183977
2.10722284e+03,8.49991106e+01,-1.79959567e-07,6.02102146,4.51219018,1.50880753,-3.84509977,5.11987028,7.23794246,-8.86915167e-01,-1,-0.8571189432186284
2.15324985e+03,8.49991021e+01,-1.83777596e-07,6.02083145,4.51591043,1.50127202,-3.84509989,5.35776150,7.24470463,-8.67049147e-01,-1,-0.8537757927902708
2.20030401e+03,8.49990932e+01,-1.87605243e-07,6.02064928,4.51964013,1.49372154,-3.84510002,5.60472512,7.25149478,-8.47095376e-01,-1,-0.8503580358001903
2.24824494e+03,8.49990839e+01,-1.92275586e-07,6.02046992,4.52338344,1.48614522,-3.84510008,5.88604044,7.25831787,-8.27041041e-01,-1,-0.846875868684287
2.29697793e+03,8.49990743e+01,-1.97559054e-07,6.02029314,4.52713867,1.47854638,-3.84510007,6.19383849,7.26516994,-8.06898138e-01,-1,-0.8433361706592872
2.34702066e+03,8.49990641e+01,-2.02365533e-07,6.02012156,4.53091086,1.47091621,-3.84510011,6.50056281,7.27206506,-7.86622207e-01,-1,-0.8397013402795671
2.39803953e+03,8.49990534e+01,-2.06985413e-07,6.01995451,4.53469414,1.46326613,-3.84510014,6.81044097,7.27898927,-7.66258211e-01,-1,-0.8359956084257096
2.45007832e+03,8.49990424e+01,-2.11169507e-07,6.01979307,4.53848589,1.45560190,-3.84510022,7.11425299,7.28593789,-7.45817880e-01,-1,-0.8322157951578109
2.50300202e+03,8.49990310e+01,-2.14847228e-07,6.01963699,4.54228335,1.44792894,-3.84510038,7.40781527,7.29290448,-7.25319674e-01,-1,-0.8283717068643227
2.55756260e+03,8.49990190e+01,-2.18477964e-07,6.01949102,4.54609171,1.44023925,-3.84510062,7.70970084,7.29990455,-7.04715988e-01,-1,-0.8244087245546216
2.61255936e+03,8.49990067e+01,-2.22293841e-07,6.01934686,4.54990448,1.43254163,-3.84510083,8.02103035,7.30691613,-6.84076800e-01,-1,-0.8204140605138274
2.66907542e+03,8.49989938e+01,-2.27223791e-07,6.01920687,4.55373620,1.42480819,-3.84510079,8.38240761,7.31397396,-6.63296395e-01,-1,-0.8163090428253423
2.72669214e+03,8.49989804e+01,-2.31754044e-07,6.01907085,4.55757911,1.41705437,-3.84510080,8.73652571,7.32105956,-6.42422514e-01,-1,-0.812124079210531
2.78535732e+03,8.49989665e+01,-2.35986318e-07,6.01893886,4.56143181,1.40928295,-3.84510084,9.08639309,7.32816902,-6.21458400e-01,-1,-0.8078629611920747
2.84515690e+03,8.49989522e+01,-2.39941300e-07,6.01881165,4.56529370,1.40149557,-3.84510092,9.43269832,7.33530073,-6.00398266e-01,-1,-0.8035194465581108
2.90654134e+03,8.49989372e+01,-2.43121618e-07,6.01869269,4.56916244,1.39369862,-3.84510119,9.75726866,7.34245358,-5.79232912e-01,-1,-0.799060816356399
2.96914458e+03,8.49989217e+01,-2.46228399e-07,6.01858001,4.57303649,1.38589418,-3.84510144,1.00853088e+01,7.34962411,-5.57988907e-01,-1,-0.7945136591845
3.03258794e+03,8.49989058e+01,-2.49284491e-07,6.01847165,4.57691420,1.37808458,-3.84510169,1.04157408e+01,7.35680682,-5.36690687e-01,-1,-0.7899054802877947
