star_age,star_mass,star_mdot,log_L,log_Teff,log_R,log_surf_z,v_wind_Km_per_s,log_center_T,log_center_Rho,phase,x
1.49159073e+02,8.99998188e+01,-1.10421697e-06,6.07472114,4.26952398,2.02098976,-3.84509853,7.85405746,6.81842287,-2.12553253,-1,-1.0
1.53011317e+02,8.99998146e+01,-1.10448189e-06,6.07437503,4.27049934,2.01886599,-3.84509853,7.89249258,6.81995865,-2.12107647,-1,-0.9997085705557983
1.56863562e+02,8.99998103e+01,-1.10474680e-06,6.07402893,4.27147470,2.01674222,-3.84509853,7.93092770,6.82149443,-2.11662042,-1,-0.9994171410359448
1.60715806e+02,8.99998061e+01,-1.10501172e-06,6.07368282,4.27245006,2.01461845,-3.84509853,7.96936282,6.82303021,-2.11216436,-1,-0.9991257115917431
1.64568051e+02,8.99998018e+01,-1.10527664e-06,6.07333672,4.27342542,2.01249468,-3.84509853,8.00779794,6.82456599,-2.10770830,-1,-0.9988342820718896
1.68445027e+02,8.99997975e+01,-1.10556153e-06,6.07299331,4.27440508,2.01036365,-3.84509853,8.04654324,6.82610992,-2.10322857,-1,-0.9985409816057553
1.72798002e+02,8.99997927e+01,-1.10623081e-06,6.07270188,4.27546752,2.00809306,-3.84509853,8.09125839,6.82781072,-2.09829317,-1,-0.9982116709273887
1.77150977e+02,8.99997879e+01,-1.10690010e-06,6.07241044,4.27652996,2.00582246,-3.84509853,8.13597354,6.82951151,-2.09335776,-1,-0.9978823602490221
1.81503952e+02,8.99997830e+01,-1.10756938e-06,6.07211901,4.27759240,2.00355186,-3.84509853,8.18068869,6.83121230,-2.08842236,-1,-0.9975530495706555
1.85856927e+02,8.99997782e+01,-1.10823866e-06,6.07182757,4.27865483,2.00128127,-3.84509853,8.22540384,6.83291310,-2.08348695,-1,-0.9972237388922888
1.90209902e+02,8.99997734e+01,-1.10890795e-06,6.07153614,4.27971727,1.99901067,-3.84509853,8.27011899,6.83461389,-2.07855155,-1,-0.9968944282139222
1.95036481e+02,8.99997680e+01,-1.10999461e-06,6.07129233,4.28085818,1.99660697,-3.84509853,8.32139526,6.83646413,-2.07318153,-1,-0.9965292885095407
1.99987417e+02,8.99997625e+01,-1.11119088e-06,6.07106104,4.28201968,1.99416831,-3.84509853,8.37439432,6.83835362,-2.06769739,-1,-0.9961547409661458
2.04938353e+02,8.99997569e+01,-1.11238714e-06,6.07082974,4.28318118,1.99172965,-3.84509853,8.42739338,6.84024311,-2.06221325,-1,-0.9957801934227508
2.09889288e+02,8.99997514e+01,-1.11358340e-06,6.07059845,4.28434269,1.98929100,-3.84509853,8.48039244,6.84213259,-2.05672911,-1,-0.9954056459550077
2.14840224e+02,8.99997459e+01,-1.11477966e-06,6.07036715,4.28550419,1.98685234,-3.84509853,8.53339150,6.84402208,-2.05124498,-1,-0.9950310984116127
2.19940842e+02,8.99997402e+01,-1.11627886e-06,6.07014742,4.28669053,1.98436980,-3.84509853,8.59002570,6.84595852,-2.04562428,-1,-0.9946452271457155
2.25502317e+02,8.99997339e+01,-1.11871077e-06,6.06996329,4.28795334,1.98175213,-3.84509853,8.65785214,6.84803954,-2.03958312,-1,-0.9942244911881304
2.31063792e+02,8.99997277e+01,-1.12114268e-06,6.06977917,4.28921614,1.97913446,-3.84509853,8.72567857,6.85012057,-2.03354197,-1,-0.9938037552305453
2.36625267e+02,8.99997214e+01,-1.12357459e-06,6.06959504,4.29047894,1.97651678,-3.84509853,8.79350500,6.85220159,-2.02750082,-1,-0.9933830192729602
2.42186742e+02,8.99997151e+01,-1.12600650e-06,6.06941092,4.29174175,1.97389911,-3.84509853,8.86133144,6.85428261,-2.02145967,-1,-0.9929622833153751
2.48264505e+02,8.99997082e+01,-1.12882404e-06,6.06927046,4.29308659,1.97113921,-3.84509853,8.93713735,6.85651789,-2.01496940,-1,-0.9925024892075566
2.54376494e+02,8.99997013e+01,-1.13166714e-06,6.06913290,4.29443686,1.96836988,-3.84509853,9.01347226,6.85876340,-2.00844936,-1,-0.9920401058389962
2.60488484e+02,8.99996943e+01,-1.13451025e-06,6.06899534,4.29578714,1.96560055,-3.84509853,9.08980716,6.86100891,-2.00192932,-1,-0.9915777223947838
2.66712208e+02,8.99996873e+01,-1.13744840e-06,6.06886725,4.29715454,1.96280171,-3.84509853,9.16806046,6.86328650,-1.99531604,-1,-0.9911068860650538
2.73354781e+02,8.99996796e+01,-1.14074284e-06,6.06877465,4.29858612,1.95989224,-3.84509853,9.25350513,6.86568438,-1.98835323,-1,-0.9906043630271936
2.79997355e+02,8.99996720e+01,-1.14403728e-06,6.06868205,4.30001771,1.95698277,-3.84509853,9.33894980,6.86808225,-1.98139042,-1,-0.9901018399136814
2.86639929e+02,8.99996644e+01,-1.14733172e-06,6.06858945,4.30144929,1.95407330,-3.84509853,9.42439447,6.87048012,-1.97442761,-1,-0.9895993168001693
2.93752526e+02,8.99996561e+01,-1.15054390e-06,6.06853766,4.30294852,1.95104894,-3.84509853,9.51414843,6.87300298,-1.96710164,-1,-0.9890612355699719
3.00971389e+02,8.99996478e+01,-1.15373748e-06,6.06849510,4.30446304,1.94799862,-3.84509853,9.60487666,6.87555408,-1.95969357,-1,-0.9885151151186563
3.08190252e+02,8.99996394e+01,-1.15693106e-06,6.06845253,4.30597756,1.94494830,-3.84509853,9.69560488,6.87810519,-1.95228550,-1,-0.9879689946673407
3.15455022e+02,8.99996310e+01,-1.16016153e-06,6.06841343,4.30749852,1.94188682,-3.84509853,9.78716341,6.88066812,-1.94484297,-1,-0.9874194012658446
3.23360526e+02,8.99996217e+01,-1.16390684e-06,6.06842263,4.30910942,1.93866963,-3.84509854,9.89031084,6.88339611,-1.93691953,-1,-0.9868213351420855
3.31266030e+02,8.99996124e+01,-1.16765215e-06,6.06843182,4.31072031,1.93545244,-3.84509854,9.99345828,6.88612411,-1.92899610,-1,-0.9862232690183265
3.39171534e+02,8.99996031e+01,-1.17139746e-06,6.06844102,4.31233120,1.93223526,-3.84509854,1.00966057e+01,6.88885210,-1.92107267,-1,-0.9856252028945675
3.47077038e+02,8.99995938e+01,-1.17514278e-06,6.06845021,4.31394209,1.92901807,-3.84509854,1.01997531e+01,6.89158009,-1.91314924,-1,-0.9850271367708084
3.55648585e+02,8.99995836e+01,-1.18104956e-06,6.06849579,4.31564791,1.92562923,-3.84509854,1.03305034e+01,6.89448000,-1.90472579,-1,-0.9843786832517275
3.64248550e+02,8.99995733e+01,-1.18704857e-06,6.06854291,4.31735778,1.92223306,-3.84509854,1.04624313e+01,6.89738725,-1.89628101,-1,-0.9837280798579383
3.72848514e+02,8.99995630e+01,-1.19304758e-06,6.06859004,4.31906764,1.91883689,-3.84509854,1.05943592e+01,6.90029450,-1.88783624,-1,-0.983077476539801
3.81882053e+02,8.99995521e+01,-1.19911845e-06,6.06865981,4.32083685,1.91533337,-3.84509854,1.07332511e+01,6.90330783,-1.87908274,-1,-0.9823940724641652
3.91100995e+02,8.99995409e+01,-1.20522005e-06,6.06873927,4.32263142,1.91178394,-3.84509854,1.08751211e+01,6.90636652,-1.87019722,-1,-0.9816966423057465
4.00319937e+02,8.99995297e+01,-1.21132165e-06,6.06881873,4.32442600,1.90823451,-3.84509854,1.10169910e+01,6.90942521,-1.86131171,-1,-0.9809992121473279
4.10033580e+02,8.99995178e+01,-1.21766219e-06,6.06892063,4.32628663,1.90456421,-3.84509854,1.11686608e+01,6.91260061,-1.85208585,-1,-0.980264356935492
4.19842557e+02,8.99995058e+01,-1.22404877e-06,6.06902685,4.32815998,1.90087062,-3.84509854,1.13222192e+01,6.91579851,-1.84279441,-1,-0.9795222895287293
4.29778319e+02,8.99994935e+01,-1.23029198e-06,6.06913744,4.33004880,1.89714827,-3.84509854,1.14764369e+01,6.91902323,-1.83342496,-1,-0.9787706306002243
4.40226238e+02,8.99994805e+01,-1.23595602e-06,6.06926565,4.33200013,1.89330971,-3.84509855,1.16333182e+01,6.92235629,-1.82374041,-1,-0.9779802260393413
4.50674157e+02,8.99994675e+01,-1.24162006e-06,6.06939385,4.33395146,1.88947116,-3.84509855,1.17901994e+01,6.92568935,-1.81405585,-1,-0.9771898214784585
4.61292533e+02,8.99994542e+01,-1.24738898e-06,6.06952536,4.33592305,1.88559373,-3.84509855,1.19509778e+01,6.92905738,-1.80426941,-1,-0.9763865215275715
4.72500837e+02,8.99994400e+01,-1.25352086e-06,6.06966827,4.33796475,1.88158179,-3.84509855,1.21252432e+01,6.93254643,-1.79413034,-1,-0.9755385924230903
4.83709141e+02,8.99994258e+01,-1.25965275e-06,6.06981118,4.34000645,1.87756985,-3.84509856,1.22995087e+01,6.93603548,-1.78399127,-1,-0.974690663318609
4.94917445e+02,8.99994116e+01,-1.26578463e-06,6.06995409,4.34204814,1.87355791,-3.84509856,1.24737742e+01,6.93952453,-1.77385219,-1,-0.9738427342141278
5.06809642e+02,8.99993963e+01,-1.27468846e-06,6.07010151,4.34417282,1.86938228,-3.84509856,1.26891042e+01,6.94315606,-1.76329817,-1,-0.972943067328529
5.18780202e+02,8.99993809e+01,-1.28390990e-06,6.07024945,4.34630700,1.86518789,-3.84509856,1.29091396e+01,6.94680391,-1.75269660,-1,-0.9720374721358095
5.30912954e+02,8.99993651e+01,-1.29304033e-06,6.07039746,4.34845983,1.86095623,-3.84509856,1.31319172e+01,6.95048363,-1.74200199,-1,-0.9711196068157527
5.43556212e+02,8.99993485e+01,-1.30188428e-06,6.07054566,4.35067135,1.85660728,-3.84509856,1.33633260e+01,6.95426366,-1.73101455,-1,-0.9701631207645477
5.56199470e+02,8.99993320e+01,-1.31072822e-06,6.07069386,4.35288288,1.85225833,-3.84509856,1.35947347e+01,6.95804370,-1.72002711,-1,-0.9692066347133427
5.69410885e+02,8.99993297e+01,-7.92577313e-07,6.07083966,4.35515759,1.84778181,-3.84509858,8.23387476,6.96193112,-1.70872662,-1,-0.9682071665253028
5.82691168e+02,8.99993291e+01,-2.10547528e-07,6.07098516,4.35743996,1.84328982,-3.84509860,2.19515649,6.96583156,-1.69738819,-1,-0.9672024883446033
5.96460981e+02,8.99993285e+01,-4.16291698e-08,6.07111924,4.35976964,1.83869749,-3.84509863,4.46699840e-01,6.96981091,-1.68581960,-1,-0.966160776306282
6.10432449e+02,8.99993279e+01,-4.28868150e-08,6.07124862,4.36211882,1.83406381,-3.84509866,4.65561942e-01,6.97382278,-1.67415620,-1,-0.9651038086910632
6.24582914e+02,8.99993273e+01,-4.41712741e-08,6.07137279,4.36448470,1.82939414,-3.84509868,4.85022151e-01,6.97786297,-1.66240991,-1,-0.9640332996189106
6.39377329e+02,8.99993266e+01,-4.55521974e-08,6.07147825,4.36691067,1.82459494,-3.84509871,5.06634078e-01,6.98200508,-1.65036542,-1,-0.9629140745280963
6.54171744e+02,8.99993259e+01,-4.69331207e-08,6.07158372,4.36933663,1.81979575,-3.84509874,5.28246005e-01,6.98614720,-1.63832093,-1,-0.9617948494372821
6.69290741e+02,8.99993251e+01,-4.86151161e-08,6.07167961,4.37179372,1.81492951,-3.84509877,5.53981262e-01,6.99034247,-1.62612121,-1,-0.960651069112724
6.84907138e+02,8.99993243e+01,-5.07584840e-08,6.07176082,4.37429852,1.80996053,-3.84509879,5.86035243e-01,6.99461922,-1.61368361,-1,-0.9594696595503645
7.00613483e+02,8.99993235e+01,-5.28994350e-08,6.07183910,4.37681132,1.80497407,-3.84509882,6.18302675e-01,6.99890969,-1.60120590,-1,-0.9582814452540246
7.16954895e+02,8.99993225e+01,-5.50233225e-08,6.07189664,4.37938059,1.79986429,-3.84509884,6.52077166e-01,7.00329707,-1.58844492,-1,-0.9570451869545424
7.33365556e+02,8.99993216e+01,-5.71528934e-08,6.07195163,4.38195559,1.79474179,-3.84509887,6.86116371e-01,7.00769434,-1.57565483,-1,-0.9558036898390398
7.50395271e+02,8.99993206e+01,-5.93332713e-08,6.07198385,4.38458173,1.78950561,-3.84509888,7.22521976e-01,7.01218010,-1.56260452,-1,-0.9545153601337142
7.67579175e+02,8.99993195e+01,-6.14556122e-08,6.07200947,4.38721879,1.78424432,-3.84509890,7.58647699e-01,7.01668488,-1.54949840,-1,-0.9532153657429293
7.85357732e+02,8.99993183e+01,-6.33541265e-08,6.07200965,4.38989791,1.77888617,-3.84509891,7.93694021e-01,7.02126301,-1.53617712,-1,-0.9518703847434865
8.03161395e+02,8.99993172e+01,-6.52565389e-08,6.07200877,4.39257866,1.77352423,-3.84509891,8.28862518e-01,7.02584406,-1.52284724,-1,-0.9505235044283133
8.21835816e+02,8.99993159e+01,-6.72941436e-08,6.07197107,4.39531588,1.76803093,-3.84509892,8.68268310e-01,7.03052629,-1.50921894,-1,-0.9491107496462129
8.40510237e+02,8.99993146e+01,-6.93317484e-08,6.07193336,4.39805310,1.76253764,-3.84509892,9.07674102e-01,7.03520853,-1.49559064,-1,-0.9476979948641124
8.59665425e+02,8.99993131e+01,-7.19299193e-08,6.07187943,4.40082509,1.75696669,-3.84509892,9.56235118e-01,7.03995448,-1.48177532,-1,-0.9462488691616859
8.79230246e+02,8.99993116e+01,-7.50057149e-08,6.07181166,4.40362670,1.75132959,-3.84509893,1.01259675,7.04475474,-1.46780066,-1,-0.9447687539587198
8.99206890e+02,8.99993101e+01,-7.80336864e-08,6.07172934,4.40645379,1.74563425,-3.84509893,1.07011082,7.04960177,-1.45368781,-1,-0.9432574835776291
9.19565110e+02,8.99993084e+01,-8.10173464e-08,6.07163354,4.40930448,1.73988497,-3.84509893,1.12869269,7.05449215,-1.43944693,-1,-0.9417173462603835
9.40455581e+02,8.99993066e+01,-8.40144839e-08,6.07151967,4.41218587,1.73406524,-3.84509893,1.18988350,7.05944019,-1.42503435,-1,-0.9401369431621787
9.61569275e+02,8.99993048e+01,-8.70172739e-08,6.07139821,4.41508015,1.72821597,-3.84509893,1.25216848,7.06441241,-1.41054976,-1,-0.9385396528276454
9.83504950e+02,8.99993028e+01,-8.95927164e-08,6.07124933,4.41801274,1.72227633,-3.84509894,1.31194674,7.06945996,-1.39584179,-1,-0.9368801780972186
1.00546411e+03,8.99993007e+01,-9.21681191e-08,6.07109976,4.42094635,1.71633433,-3.84509895,1.37183102,7.07450956,-1.38112768,-1,-0.9352189266827351
1.02839582e+03,8.99992985e+01,-9.48778678e-08,6.07092329,4.42392123,1.71029633,-3.84509897,1.43809109,7.07964313,-1.36616191,-1,-0.9334841000466514
1.05132753e+03,8.99992962e+01,-9.75876165e-08,6.07074681,4.42689611,1.70425833,-3.84509899,1.50435115,7.08477670,-1.35119614,-1,-0.9317492734105677
1.07499744e+03,8.99992938e+01,-1.01260796e-07,6.07055536,4.42990876,1.69813730,-3.84509899,1.58973279,7.08998647,-1.33600494,-1,-0.9299586005675174
1.09891244e+03,8.99992912e+01,-1.05253861e-07,6.07035895,4.43293396,1.69198871,-3.84509900,1.68146327,7.09522154,-1.32073889,-1,-0.9281493862088
1.12361483e+03,8.99992885e+01,-1.09081070e-07,6.07014681,4.43599268,1.68576519,-3.84509900,1.77579503,7.10052566,-1.30526705,-1,-0.926280604327862
1.14859173e+03,8.99992856e+01,-1.12881567e-07,6.06992971,4.43906253,1.67951695,-3.84509901,1.87156968,7.10585309,-1.28972559,-1,-0.9243910552533795
1.17423271e+03,8.99992826e+01,-1.16657155e-07,6.06970126,4.44215853,1.67321073,-3.84509901,1.97151908,7.11123593,-1.27401843,-1,-0.9224512672881868
1.20045006e+03,8.99992794e+01,-1.20073232e-07,6.06946517,4.44527192,1.66686590,-3.84509903,2.06921374,7.11665827,-1.25819281,-1,-0.9204678758573894
1.22701899e+03,8.99992761e+01,-1.23270008e-07,6.06922442,4.44839593,1.66049751,-3.84509904,2.16553302,7.12210470,-1.24229493,-1,-0.9184578867437889
1.25445316e+03,8.99992726e+01,-1.26560998e-07,6.06897677,4.45154384,1.65407787,-3.84509906,2.26940079,7.12760740,-1.22622861,-1,-0.9163824406102538
1.28213477e+03,8.99992690e+01,-1.29878931e-07,6.06872715,4.45469858,1.64764356,-3.84509908,2.37542724,7.13312618,-1.21011412,-1,-0.9142882751791681
1.31053629e+03,8.99992651e+01,-1.34164118e-07,6.06847386,4.45788010,1.64115388,-3.84509908,2.50529427,7.13870341,-1.19382353,-1,-0.9121396472137323
1.33931810e+03,8.99992611e+01,-1.38960264e-07,6.06821863,4.46107576,1.63463495,-3.84509909,2.64775527,7.14431152,-1.17743991,-1,-0.9099622496004405
1.36899639e+03,8.99992567e+01,-1.43496767e-07,6.06795872,4.46429861,1.62805929,-3.84509909,2.79366815,7.14998093,-1.16087427,-1,-0.9077170316029419
1.39906901e+03,8.99992523e+01,-1.47976460e-07,6.06769751,4.46753276,1.62146038,-3.84509911,2.94214874,7.15567622,-1.14423099,-1,-0.9054419818053985
1.42979389e+03,8.99992475e+01,-1.52392546e-07,6.06743455,4.47078525,1.61482392,-3.84509912,3.09543163,7.16141376,-1.12746058,-1,-0.9031175873221927
1.46136064e+03,8.99992425e+01,-1.56233142e-07,6.06717252,4.47405499,1.60815343,-3.84509915,3.24416130,7.16719455,-1.11055821,-1,-0.9007295038031443
1.49319518e+03,8.99992374e+01,-1.59936372e-07,6.06691100,4.47733019,1.60147228,-3.84509919,3.39236242,7.17298907,-1.09361397,-1,-0.8983211614710866
1.52622409e+03,8.99992319e+01,-1.63725830e-07,6.06665489,4.48062913,1.59474634,-3.84509923,3.55227682,7.17884443,-1.07648439,-1,-0.895822462820667
1.55928163e+03,8.99992264e+01,-1.67552312e-07,6.06639885,4.48392887,1.58801884,-3.84509928,3.71330011,7.18470161,-1.05934930,-1,-0.8933215982573439
1.59355124e+03,8.99992203e+01,-1.72945827e-07,6.06614586,4.48726243,1.58122523,-3.84509929,3.92125710,7.19063573,-1.04198086,-1,-0.8907290383376432
1.62821033e+03,8.99992141e+01,-1.78201426e-07,6.06589367,4.49060484,1.57441430,-3.84509930,4.13038690,7.19659060,-1.02455113,-1,-0.8881070135294442
1.66360040e+03,8.99992076e+01,-1.83198184e-07,6.06564299,4.49396389,1.56757087,-3.84509931,4.34171782,7.20258441,-1.00700637,-1,-0.8854296887207462
1.69987491e+03,8.99992007e+01,-1.88058172e-07,6.06539569,4.49734152,1.56069196,-3.84509934,4.55945372,7.20862343,-9.89324859e-01,-1,-0.8826854543762999
1.73677918e+03,8.99991936e+01,-1.92580567e-07,6.06515201,4.50072959,1.55379398,-3.84509937,4.77534636,7.21468935,-9.71560675e-01,-1,-0.8798935775131603
1.77443308e+03,8.99991861e+01,-1.96576896e-07,6.06491327,4.50412864,1.54687651,-3.84509944,4.98573368,7.22078458,-9.53705689e-01,-1,-0.8770449897422339
1.81305604e+03,8.99991783e+01,-2.00601654e-07,6.06468154,4.50754120,1.53993553,-3.84509951,5.20590500,7.22691605,-9.35739527e-01,-1,-0.874123090774717
1.85213403e+03,8.99991702e+01,-2.04639761e-07,6.06445312,4.51096010,1.53298352,-3.84509959,5.43067041,7.23306455,-9.17721163e-01,-1,-0.8711667679389314
1.89223192e+03,8.99991617e+01,-2.09849838e-07,6.06422897,4.51440132,1.52598900,-3.84509961,5.69800823,7.23926474,-8.99547353e-01,-1,-0.8681332877657234
1.93284871e+03,8.99991529e+01,-2.15443404e-07,6.06400713,4.51785352,1.51897368,-3.84509961,5.98138527,7.24549053,-8.81296350e-01,-1,-0.8650605518396097
1.97458795e+03,8.99991437e+01,-2.20586408e-07,6.06379103,4.52132719,1.51191829,-3.84509963,6.26564553,7.25176747,-8.62889741e-01,-1,-0.861902900477287
2.01709687e+03,8.99991340e+01,-2.25576620e-07,6.06357880,4.52481344,1.50483967,-3.84509965,6.55410007,7.25807550,-8.44388560e-01,-1,-0.8586870213872779
2.06035545e+03,8.99991240e+01,-2.30273701e-07,6.06337081,4.52831019,1.49774217,-3.84509970,6.84180829,7.26441050,-8.25804458e-01,-1,-0.8554144291199259
2.10465857e+03,8.99991136e+01,-2.34266957e-07,6.06316974,4.53181798,1.49062606,-3.84509980,7.11858681,7.27077629,-8.07123630e-01,-1,-0.8520628154531905
2.14991174e+03,8.99991027e+01,-2.38244639e-07,6.06297440,4.53533507,1.48349422,-3.84509991,7.40261397,7.27716776,-7.88364198e-01,-1,-0.8486393287318241
2.19583292e+03,8.99990915e+01,-2.42211369e-07,6.06278309,4.53885869,1.47635131,-3.84510003,7.69173788,7.28357729,-7.69549495e-01,-1,-0.8451653058079168
2.24284794e+03,8.99990798e+01,-2.47191467e-07,6.06259577,4.54240146,1.46917212,-3.84510005,8.02307254,7.29003148,-7.50599034e-01,-1,-0.8416085318476666
2.29051984e+03,8.99990677e+01,-2.52555492e-07,6.06241103,4.54595533,1.46197201,-3.84510004,8.37244004,7.29651172,-7.31569430e-01,-1,-0.8380020636901363
2.33944895e+03,8.99990551e+01,-2.57394705e-07,6.06223219,4.54952824,1.45473677,-3.84510006,8.71529761,7.30303755,-7.12401706e-01,-1,-0.8343004852510285
2.38931935e+03,8.99990419e+01,-2.62016442e-07,6.06205688,4.55311237,1.44748085,-3.84510010,9.05735393,7.30959162,-6.93145896e-01,-1,-0.8305276964676299
2.44010471e+03,8.99990284e+01,-2.66251845e-07,6.06188600,4.55670548,1.44020919,-3.84510019,9.39182196,7.31616968,-6.73815224e-01,-1,-0.8266856892535539
2.49194224e+03,8.99990143e+01,-2.69856954e-07,6.06172129,4.56030687,1.43292406,-3.84510036,9.71032295,7.32277166,-6.54409903e-01,-1,-0.8227640834163621
2.54508967e+03,8.99989997e+01,-2.73387229e-07,6.06156376,4.56391798,1.42562306,-3.84510055,1.00332988e+01,7.32940168,-6.34917039e-01,-1,-0.8187433812008101
2.59875891e+03,8.99989848e+01,-2.76887692e-07,6.06140908,4.56753298,1.41831574,-3.84510076,1.03580573e+01,7.33604288,-6.15389300e-01,-1,-0.8146832030854245
2.65397983e+03,8.99989692e+01,-2.81393643e-07,6.06125931,4.57116918,1.41096844,-3.84510076,1.07316451e+01,7.34273531,-5.95706594e-01,-1,-0.8105056374836858
2.70997600e+03,8.99989531e+01,-2.85846008e-07,6.06111225,4.57481452,1.40360424,-3.84510075,1.11088914e+01,7.34945054,-5.75954249e-01,-1,-0.806269422773371
2.76705923e+03,8.99989366e+01,-2.89869893e-07,6.06096918,4.57847174,1.39621826,-3.84510078,1.14780874e+01,7.35619599,-5.56109204e-01,-1,-0.8019509699463602
2.82559036e+03,8.99989193e+01,-2.93540713e-07,6.06083195,4.58214269,1.38880774,-3.84510085,1.18429462e+01,7.36297752,-5.36155792e-01,-1,-0.7975229807835773
2.88525589e+03,8.99989015e+01,-2.96699330e-07,6.06070035,4.58582016,1.38138701,-3.84510105,1.21924383e+01,7.36977927,-5.16141368e-01,-1,-0.7930091721447949
2.94569247e+03,8.99988834e+01,-2.99512860e-07,6.06057262,4.58950171,1.37396004,-3.84510135,1.25313345e+01,7.37659412,-4.96087449e-01,-1,-0.7884370321352708
