star_age,star_mass,star_mdot,log_L,log_Teff,log_R,log_surf_z,v_wind_Km_per_s,log_center_T,log_center_Rho,phase,x
2.68766934e+02,1.24999898e+02,-4.28901744e-07,6.32814771,4.48874850,1.70925400,-3.84509860,6.77696517,7.20987436,-1.05534833,-1,-1.0
2.74176834e+02,1.24999896e+02,-4.31417786e-07,6.32793863,4.48949147,1.70766352,-3.84509860,6.85382568,7.21102917,-1.05201409,-1,-0.9994344592840418
2.79586733e+02,1.24999894e+02,-4.33933828e-07,6.32772955,4.49023444,1.70607304,-3.84509861,6.93068618,7.21218398,-1.04867985,-1,-0.9988689186726217
2.84996632e+02,1.24999891e+02,-4.36449869e-07,6.32752047,4.49097741,1.70448256,-3.84509861,7.00754669,7.21333879,-1.04534561,-1,-0.9983033780612017
2.90406532e+02,1.24999889e+02,-4.38965911e-07,6.32731140,4.49172039,1.70289208,-3.84509861,7.08440720,7.21449360,-1.04201137,-1,-0.9977378373452436
2.95816431e+02,1.24999886e+02,-4.41481952e-07,6.32710232,4.49246336,1.70130160,-3.84509862,7.16126770,7.21564840,-1.03867713,-1,-0.9971722967338235
3.01226331e+02,1.24999884e+02,-4.43997994e-07,6.32689324,4.49320633,1.69971112,-3.84509862,7.23812821,7.21680321,-1.03534289,-1,-0.9966067560178653
3.06636230e+02,1.24999881e+02,-4.46514035e-07,6.32668416,4.49394930,1.69812064,-3.84509863,7.31498871,7.21795802,-1.03200866,-1,-0.9960412154064452
3.12552745e+02,1.24999879e+02,-4.49035057e-07,6.32646114,4.49474511,1.69641750,-3.84509863,7.39765524,7.21920235,-1.02841501,-1,-0.9954227141163886
3.18675713e+02,1.24999876e+02,-4.51558109e-07,6.32623243,4.49556246,1.69466844,-3.84509864,7.48268778,7.22048316,-1.02471565,-1,-0.9947826306201116
3.24798680e+02,1.24999873e+02,-4.54081161e-07,6.32600372,4.49637981,1.69291939,-3.84509864,7.56772032,7.22176396,-1.02101629,-1,-0.9941425472283727
3.30921647e+02,1.24999870e+02,-4.56604213e-07,6.32577501,4.49719716,1.69117033,-3.84509865,7.65275286,7.22304477,-1.01731694,-1,-0.9935024638366339
3.37044614e+02,1.24999867e+02,-4.59127265e-07,6.32554631,4.49801451,1.68942128,-3.84509865,7.73778540,7.22432558,-1.01361758,-1,-0.9928623804448949
3.43167581e+02,1.24999865e+02,-4.61650317e-07,6.32531760,4.49883186,1.68767222,-3.84509866,7.82281794,7.22560639,-1.00991822,-1,-0.992222297053156
3.49682741e+02,1.24999861e+02,-4.64218057e-07,6.32508023,4.49968727,1.68584273,-3.84509867,7.91311628,7.22695255,-1.00602907,-1,-0.9915412145468283
3.56494954e+02,1.24999858e+02,-4.66819644e-07,6.32483632,4.50057150,1.68395232,-3.84509867,8.00740306,7.22834821,-1.00199618,-1,-0.9908290786816035
3.63307168e+02,1.24999855e+02,-4.69421231e-07,6.32459240,4.50145572,1.68206190,-3.84509868,8.10168984,7.22974387,-9.97963288e-01,-1,-0.9901169427118407
3.70119382e+02,1.24999852e+02,-4.72022818e-07,6.32434848,4.50233995,1.68017149,-3.84509868,8.19597662,7.23113953,-9.93930394e-01,-1,-0.9894048067420778
3.76931596e+02,1.24999848e+02,-4.74624405e-07,6.32410456,4.50322418,1.67828107,-3.84509869,8.29026340,7.23253519,-9.89897501e-01,-1,-0.9886926707723149
3.83817812e+02,1.24999845e+02,-4.77195940e-07,6.32385955,4.50411499,1.67637695,-3.84509870,8.38485313,7.23394245,-9.85830885e-01,-1,-0.9879727987734087
3.91379229e+02,1.24999841e+02,-4.79493271e-07,6.32360463,4.50506583,1.67434781,-3.84509870,8.48220706,7.23545553,-9.81456576e-01,-1,-0.9871823425387577
3.98940647e+02,1.24999838e+02,-4.81790602e-07,6.32334971,4.50601667,1.67231867,-3.84509871,8.57956100,7.23696862,-9.77082267e-01,-1,-0.9863918861995686
4.06502064e+02,1.24999834e+02,-4.84087933e-07,6.32309478,4.50696751,1.67028952,-3.84509871,8.67691493,7.23848171,-9.72707958e-01,-1,-0.9856014299649177
4.14063482e+02,1.24999830e+02,-4.86385264e-07,6.32283986,4.50791835,1.66826038,-3.84509872,8.77426886,7.23999480,-9.68333649e-01,-1,-0.9848109736257286
4.21624899e+02,1.24999827e+02,-4.88682596e-07,6.32258494,4.50886919,1.66623124,-3.84509872,8.87162279,7.24150788,-9.63959341e-01,-1,-0.9840205173910777
4.29351707e+02,1.24999823e+02,-4.91010969e-07,6.32232843,4.50983380,1.66417376,-3.84509873,8.97139289,7.24304573,-9.59513031e-01,-1,-0.9832127714940386
4.37807652e+02,1.24999819e+02,-4.93476196e-07,6.32206491,4.51085914,1.66199133,-3.84509873,9.08181488,7.24469269,-9.54749298e-01,-1,-0.982328802993807
4.46263598e+02,1.24999814e+02,-4.95941423e-07,6.32180139,4.51188448,1.65980889,-3.84509873,9.19223687,7.24633965,-9.49985565e-01,-1,-0.9814448343890373
4.54719543e+02,1.24999810e+02,-4.98406650e-07,6.32153787,4.51290981,1.65762646,-3.84509873,9.30265886,7.24798662,-9.45221832e-01,-1,-0.9805608658888058
4.63175489e+02,1.24999806e+02,-5.00871878e-07,6.32127435,4.51393515,1.65544403,-3.84509873,9.41308085,7.24963358,-9.40458099e-01,-1,-0.9796768972840361
4.71631434e+02,1.24999801e+02,-5.03337105e-07,6.32101084,4.51496048,1.65326160,-3.84509873,9.52350284,7.25128055,-9.35694366e-01,-1,-0.9787929287838044
4.80087380e+02,1.24999797e+02,-5.05802332e-07,6.32074732,4.51598582,1.65107917,-3.84509874,9.63392484,7.25292751,-9.30930633e-01,-1,-0.9779089601790347
4.89306695e+02,1.24999792e+02,-5.09212662e-07,6.32047616,4.51707617,1.64876290,-3.84509874,9.77211914,7.25468814,-9.25836148e-01,-1,-0.9769451904225246
4.98672537e+02,1.24999787e+02,-5.12804401e-07,6.32020353,4.51817899,1.64642093,-3.84509874,9.91564425,7.25647059,-9.20678178e-01,-1,-0.975966103010515
5.08038379e+02,1.24999783e+02,-5.16396140e-07,6.31993091,4.51928182,1.64407897,-3.84509874,1.00591694e+01,7.25825304,-9.15520207e-01,-1,-0.9749870155985053
5.17404221e+02,1.24999778e+02,-5.19987879e-07,6.31965829,4.52038465,1.64173700,-3.84509874,1.02026945e+01,7.26003548,-9.10362236e-01,-1,-0.9740079281864956
5.26770062e+02,1.24999773e+02,-5.23579618e-07,6.31938566,4.52148747,1.63939504,-3.84509875,1.03462196e+01,7.26181793,-9.05204265e-01,-1,-0.9730288408790241
5.36841155e+02,1.24999767e+02,-5.27021774e-07,6.31910843,4.52264482,1.63694173,-3.84509874,1.04963788e+01,7.26369928,-8.99757332e-01,-1,-0.9719760278610937
5.47025265e+02,1.24999762e+02,-5.30439959e-07,6.31883046,4.52381090,1.63447058,-3.84509874,1.06476012e+01,7.26559649,-8.94264091e-01,-1,-0.9709114002596969
5.57209376e+02,1.24999756e+02,-5.33858144e-07,6.31855249,4.52497699,1.63199943,-3.84509874,1.07988236e+01,7.26749369,-8.88770851e-01,-1,-0.969846772553762
5.67393487e+02,1.24999751e+02,-5.37276329e-07,6.31827453,4.52614307,1.62952828,-3.84509874,1.09500459e+01,7.26939090,-8.83277610e-01,-1,-0.968782144847827
5.77990981e+02,1.24999745e+02,-5.40671374e-07,6.31799482,4.52733880,1.62699697,-3.84509873,1.11062581e+01,7.27134278,-8.77625032e-01,-1,-0.9676743028647732
5.88962271e+02,1.24999739e+02,-5.44045494e-07,6.31771354,4.52856133,1.62441126,-3.84509873,1.12669821e+01,7.27334411,-8.71828374e-01,-1,-0.9665273849547222
5.99933561e+02,1.24999733e+02,-5.47419615e-07,6.31743226,4.52978387,1.62182555,-3.84509873,1.14277062e+01,7.27534544,-8.66031716e-01,-1,-0.9653804670446713
6.10904852e+02,1.24999727e+02,-5.50793736e-07,6.31715098,4.53100640,1.61923984,-3.84509873,1.15884303e+01,7.27734677,-8.60235058e-01,-1,-0.9642335490300822
6.22346842e+02,1.24999720e+02,-5.53882188e-07,6.31686987,4.53225939,1.61659332,-3.84509873,1.17487293e+01,7.27940579,-8.54269727e-01,-1,-0.9630374250321181
6.34173610e+02,1.24999714e+02,-5.56737116e-07,6.31658891,4.53353726,1.61389709,-3.84509874,1.19086807e+01,7.28151198,-8.48166514e-01,-1,-0.9618010770696435
6.46000377e+02,1.24999707e+02,-5.59592045e-07,6.31630795,4.53481513,1.61120086,-3.84509875,1.20686322e+01,7.28361818,-8.42063301e-01,-1,-0.960564729211707
6.57827145e+02,1.24999700e+02,-5.62446973e-07,6.31602698,4.53609300,1.60850464,-3.84509875,1.22285836e+01,7.28572437,-8.35960088e-01,-1,-0.9593283812492325
6.69781835e+02,1.24999694e+02,-5.65312441e-07,6.31574627,4.53737880,1.60579268,-3.84509876,1.23901551e+01,7.28784556,-8.29813039e-01,-1,-0.9580786605627766
6.82629238e+02,1.24999686e+02,-5.68251457e-07,6.31546734,4.53871992,1.60297098,-3.84509878,1.25630323e+01,7.29007143,-8.23360074e-01,-1,-0.9567356173474079
6.95476642e+02,1.24999679e+02,-5.71190473e-07,6.31518841,4.54006104,1.60014929,-3.84509879,1.27359094e+01,7.29229731,-8.16907110e-01,-1,-0.955392574027501
7.08324045e+02,1.24999671e+02,-5.74129489e-07,6.31490948,4.54140215,1.59732759,-3.84509880,1.29087866e+01,7.29452318,-8.10454145e-01,-1,-0.9540495308121323
7.21171448e+02,1.24999664e+02,-5.77068506e-07,6.31463055,4.54274327,1.59450589,-3.84509882,1.30816638e+01,7.29674906,-8.04001181e-01,-1,-0.9527064875967636
7.34264011e+02,1.24999656e+02,-5.80288290e-07,6.31435133,4.54410031,1.59165220,-3.84509883,1.32637374e+01,7.29900401,-7.97463120e-01,-1,-0.9513378158185889
7.48144507e+02,1.24999648e+02,-5.84410450e-07,6.31407119,4.54550851,1.58869573,-3.84509884,1.34753681e+01,7.30135243,-7.90651562e-01,-1,-0.949886775014564
7.62025003e+02,1.24999640e+02,-5.88532610e-07,6.31379105,4.54691671,1.58573925,-3.84509885,1.36869988e+01,7.30370085,-7.83840005e-01,-1,-0.948435734210539
7.75905499e+02,1.24999631e+02,-5.92654770e-07,6.31351091,4.54832492,1.58278277,-3.84509886,1.38986295e+01,7.30604928,-7.77028448e-01,-1,-0.946984693406514
7.90082426e+02,1.24999623e+02,-5.96662816e-07,6.31323100,4.54975092,1.57979082,-3.84509887,1.41108188e+01,7.30843071,-7.70120208e-01,-1,-0.9455026642662958
8.04889527e+02,1.24999614e+02,-6.00428267e-07,6.31295158,4.55121475,1.57672345,-3.84509888,1.43241955e+01,7.31088234,-7.63006431e-01,-1,-0.9439547579277674
8.19696628e+02,1.24999605e+02,-6.04193719e-07,6.31267216,4.55267858,1.57365608,-3.84509889,1.45375723e+01,7.31333396,-7.55892655e-01,-1,-0.942406851589239
8.34503729e+02,1.24999596e+02,-6.07959170e-07,6.31239273,4.55414241,1.57058870,-3.84509890,1.47509490e+01,7.31578559,-7.48778879e-01,-1,-0.9408589452507105
8.50065634e+02,1.24999586e+02,-6.11574666e-07,6.31211492,4.55564868,1.56743725,-3.84509891,1.49683848e+01,7.31831690,-7.41431482e-01,-1,-0.9392321331293454
8.65762217e+02,1.24999577e+02,-6.15163405e-07,6.31183741,4.55716253,1.56427080,-3.84509892,1.51865448e+01,7.32086243,-7.34042401e-01,-1,-0.9375912420245345
8.81458800e+02,1.24999567e+02,-6.18752144e-07,6.31155989,4.55867637,1.56110435,-3.84509893,1.54047048e+01,7.32340796,-7.26653319e-01,-1,-0.9359503509197235
8.97756723e+02,1.24999557e+02,-6.21931727e-07,6.31128539,4.56021993,1.55787999,-3.84509894,1.56182185e+01,7.32601074,-7.19095805e-01,-1,-0.9342465968684377
9.14421237e+02,1.24999546e+02,-6.24861880e-07,6.31101275,4.56178159,1.55462034,-3.84509896,1.58288997e+01,7.32864843,-7.11435612e-01,-1,-0.9325045200872301
9.31085751e+02,1.24999536e+02,-6.27792033e-07,6.31074010,4.56334326,1.55136069,-3.84509898,1.60395809e+01,7.33128612,-7.03775419e-01,-1,-0.9307624433060224
9.47750265e+02,1.24999525e+02,-6.30722186e-07,6.31046745,4.56490492,1.54810103,-3.84509900,1.62502621e+01,7.33392381,-6.96115226e-01,-1,-0.9290203665248149
9.65539953e+02,1.24999514e+02,-6.33625765e-07,6.31020064,4.56651869,1.54474010,-3.84509904,1.64704574e+01,7.33666355,-6.88155735e-01,-1,-0.9271606661813349
9.83360366e+02,1.24999502e+02,-6.36528618e-07,6.30993398,4.56813388,1.54137639,-3.84509908,1.66909126e+01,7.33940607,-6.80188071e-01,-1,-0.9252977539044553
1.00118078e+03,1.24999491e+02,-6.39431472e-07,6.30966733,4.56974906,1.53801269,-3.84509912,1.69113677e+01,7.34214860,-6.72220407e-01,-1,-0.9234348415230378
1.01900119e+03,1.24999479e+02,-6.42334325e-07,6.30940067,4.57136425,1.53464898,-3.84509916,1.71318229e+01,7.34489112,-6.64252743e-01,-1,-0.9215719295597726
1.03784705e+03,1.24999467e+02,-6.46118521e-07,6.30913586,4.57302969,1.53118570,-3.84509917,1.73868995e+01,7.34773140,-6.55998113e-01,-1,-0.9196018189926184
1.05683281e+03,1.24999454e+02,-6.50022966e-07,6.30887130,4.57470198,1.52770883,-3.84509918,1.76466998e+01,7.35058502,-6.47704329e-01,-1,-0.9176170835440131
1.07581857e+03,1.24999442e+02,-6.53927412e-07,6.30860674,4.57637428,1.52423197,-3.84509918,1.79065002e+01,7.35343864,-6.39410546e-01,-1,-0.9156323480954077
1.09539558e+03,1.24999429e+02,-6.57540840e-07,6.30834390,4.57807280,1.52070351,-3.84509919,1.81648159e+01,7.35634452,-6.30963687e-01,-1,-0.9135858044898475
1.11542529e+03,1.24999416e+02,-6.60931440e-07,6.30808239,4.57979139,1.51713556,-3.84509919,1.84219949e+01,7.35929043,-6.22399620e-01,-1,-0.9114919364823364
1.13545501e+03,1.24999402e+02,-6.64322041e-07,6.30782087,4.58150999,1.51356761,-3.84509919,1.86791739e+01,7.36223634,-6.13835553e-01,-1,-0.9093980674294442
1.15608936e+03,1.24999389e+02,-6.67523873e-07,6.30756154,4.58325381,1.50995031,-3.84509920,1.89367523e+01,7.36523263,-6.05123654e-01,-1,-0.9072409914996984
1.17712012e+03,1.24999374e+02,-6.70601953e-07,6.30730366,4.58501417,1.50630065,-3.84509921,1.91945926e+01,7.36826194,-5.96314839e-01,-1,-0.9050424756181582
1.19815087e+03,1.24999360e+02,-6.73680034e-07,6.30704577,4.58677452,1.50265099,-3.84509923,1.94524329e+01,7.37129126,-5.87506024e-01,-1,-0.902843960781999
1.22008317e+03,1.24999345e+02,-6.76189634e-07,6.30679293,4.58856756,1.49893851,-3.84509927,1.97002998e+01,7.37438708,-5.78501822e-01,-1,-0.9005511996136577
1.24220500e+03,1.24999330e+02,-6.78579727e-07,6.30654115,4.59036746,1.49521281,-3.84509931,1.99460701e+01,7.37749688,-5.69456547e-01,-1,-0.898238625337515
1.26432683e+03,1.24999315e+02,-6.80969820e-07,6.30628936,4.59216736,1.49148712,-3.84509935,2.01918405e+01,7.38060668,-5.60411271e-01,-1,-0.8959260510613721
1.28730543e+03,1.24999299e+02,-6.83257709e-07,6.30604209,4.59399671,1.48770478,-3.84509941,2.04390574e+01,7.38377629,-5.51190960e-01,-1,-0.8935239116695689
1.31073048e+03,1.24999283e+02,-6.85492341e-07,6.30579717,4.59584141,1.48389292,-3.84509946,2.06870282e+01,7.38697705,-5.41879441e-01,-1,-0.8910751012389961
1.33415553e+03,1.24999267e+02,-6.87726973e-07,6.30555225,4.59768610,1.48008107,-3.84509951,2.09349989e+01,7.39017782,-5.32567923e-01,-1,-0.8886262908084233
1.35766745e+03,1.24999251e+02,-6.89998311e-07,6.30530752,4.59953409,1.47626273,-3.84509956,2.11845079e+01,7.39338516,-5.23237301e-01,-1,-0.8861683991523204
1.38240195e+03,1.24999234e+02,-6.92786237e-07,6.30506555,4.60142837,1.47235318,-3.84509956,2.14556660e+01,7.39668504,-5.13637822e-01,-1,-0.8835827012948982
1.40713646e+03,1.24999216e+02,-6.95574163e-07,6.30482358,4.60332265,1.46844364,-3.84509956,2.17268242e+01,7.39998493,-5.04038343e-01,-1,-0.8809970023920952
1.43203009e+03,1.24999199e+02,-6.98283562e-07,6.30458211,4.60522236,1.46452349,-3.84509956,2.19962006e+01,7.40329585,-4.94406565e-01,-1,-0.8783946693853857
1.45793827e+03,1.24999181e+02,-7.00492332e-07,6.30434380,4.60715668,1.46053569,-3.84509958,2.22542189e+01,7.40667706,-4.84568870e-01,-1,-0.8756862772401753
1.48384644e+03,1.24999162e+02,-7.02701103e-07,6.30410549,4.60909101,1.45654788,-3.84509959,2.25122372e+01,7.41005827,-4.74731174e-01,-1,-0.8729778861403461
1.51031650e+03,1.24999144e+02,-7.04712798e-07,6.30386919,4.61104300,1.45252575,-3.84509961,2.27661487e+01,7.41347566,-4.64789238e-01,-1,-0.8702107561224428
1.53735151e+03,1.24999125e+02,-7.06526348e-07,6.30363491,4.61301275,1.44846910,-3.84509963,2.30159313e+01,7.41692942,-4.54742494e-01,-1,-0.8673845672998515
1.56440197e+03,1.24999105e+02,-7.08332774e-07,6.30340070,4.61498292,1.44441166,-3.84509966,2.32655333e+01,7.42038404,-4.44693264e-01,-1,-0.864556763363476
1.59266835e+03,1.24999085e+02,-7.09578315e-07,6.30317259,4.61698530,1.44029285,-3.84509974,2.35009266e+01,7.42390642,-4.34448229e-01,-1,-0.8616018494495874
1.62093474e+03,1.24999065e+02,-7.10823856e-07,6.30294449,4.61898768,1.43617403,-3.84509982,2.37363198e+01,7.42742880,-4.24203195e-01,-1,-0.8586469344903178
1.64943576e+03,1.24999045e+02,-7.12026776e-07,6.30271748,4.62099581,1.43204427,-3.84509990,2.39711099e+01,7.43096336,-4.13923365e-01,-1,-0.8556674917545299
1.67917617e+03,1.24999024e+02,-7.13004561e-07,6.30249624,4.62303429,1.42785669,-3.84509999,2.42027139e+01,7.43456227,-4.03459742e-01,-1,-0.8525584855318107
1.70891658e+03,1.24999002e+02,-7.13982347e-07,6.30227500,4.62507277,1.42366912,-3.84510007,2.44343179e+01,7.43816118,-3.92996118e-01,-1,-0.8494494793090912
1.73865699e+03,1.24998981e+02,-7.14960133e-07,6.30205376,4.62711124,1.41948154,-3.84510016,2.46659219e+01,7.44176009,-3.82532495e-01,-1,-0.846340473086372
1.76973412e+03,1.24998959e+02,-7.15854124e-07,6.30183567,4.62918723,1.41522053,-3.84510016,2.49005637e+01,7.44543697,-3.71848029e-01,-1,-0.8430917286825705
1.80095180e+03,1.24998936e+02,-7.16739304e-07,6.30161792,4.63126715,1.41095180,-3.84510014,2.51355251e+01,7.44912204,-3.61140340e-01,-1,-0.8398282914475471
1.83248174e+03,1.24998914e+02,-7.17497986e-07,6.30140113,4.63335480,1.40666812,-3.84510014,2.53672564e+01,7.45282328,-3.50387607e-01,-1,-0.8365322111426028
1.86502664e+03,1.24998890e+02,-7.17845513e-07,6.30118747,4.63546752,1.40233585,-3.84510016,2.55884896e+01,7.45657706,-3.39488466e-01,-1,-0.833130028838533
1.89757153e+03,1.24998867e+02,-7.18193040e-07,6.30097382,4.63758024,1.39800357,-3.84510017,2.58097227e+01,7.46033083,-3.28589325e-01,-1,-0.8297278475798443
1.93116640e+03,1.24998843e+02,-7.18202796e-07,6.30076374,4.63971647,1.39362608,-3.84510020,2.60221784e+01,7.46413391,-3.17553059e-01,-1,-0.8262159033974524
1.96498797e+03,1.24998819e+02,-7.18139624e-07,6.30055444,4.64185777,1.38923883,-3.84510022,2.62327390e+01,7.46794763,-3.06487188e-01,-1,-0.822680260425747
1.99956357e+03,1.24998794e+02,-7.17914232e-07,6.30034849,4.64401239,1.38482663,-3.84510030,2.64392310e+01,7.47178968,-2.95343514e-01,-1,-0.8190657925837013
2.03478694e+03,1.24998769e+02,-7.17549482e-07,6.30014541,4.64617844,1.38039298,-3.84510042,2.66422280e+01,7.47565608,-2.84133003e-01,-1,-0.815383608090779
2.07001030e+03,1.24998743e+02,-7.17184733e-07,6.29994233,4.64834449,1.37595934,-3.84510055,2.68452249e+01,7.47952247,-2.72922491e-01,-1,-0.811701424643238
2.10675553e+03,1.24998717e+02,-7.16512861e-07,6.29974563,4.65053504,1.37147988,-3.84510068,2.70400431e+01,7.48344094,-2.61566283e-01,-1,-0.8078601477837308
2.14365944e+03,1.24998691e+02,-7.15808966e-07,6.29954958,4.65272815,1.36699565,-3.84510081,2.72340085e+01,7.48736484,-2.50194882e-01,-1,-0.8040022828170853
2.18056336e+03,1.24998664e+02,-7.15105071e-07,6.29935353,4.65492125,1.36251141,-3.84510094,2.74279739e+01,7.49128873,-2.38823481e-01,-1,-0.8001444168050587
2.21896433e+03,1.24998637e+02,-7.13664404e-07,6.29916106,4.65714404,1.35796960,-3.84510093,2.75969046e+01,7.49527322,-2.27278552e-01,-1,-0.7961300520169317
2.25754915e+03,1.24998609e+02,-7.12133256e-07,6.29896903,4.65937047,1.35342072,-3.84510089,2.77627608e+01,7.49926515,-2.15712312e-01,-1,-0.7920964678974622
2.29674677e+03,1.24998582e+02,-7.10449955e-07,6.29877883,4.66160729,1.34885199,-3.84510087,2.79235015e+01,7.50327823,-2.04082578e-01,-1,-0.7879988228247887
2.33684715e+03,1.24998553e+02,-7.08542507e-07,6.29859134,4.66385941,1.34425400,-3.84510089,2.80767064e+01,7.50732245,-1.92359307e-01,-1,-0.7838068049288212
2.37716283e+03,1.24998525e+02,-7.06584385e-07,6.29840455,4.66611480,1.33964982,-3.84510091,2.82280807e+01,7.51137335,-1.80615643e-01,-1,-0.7795922799779829
2.41872449e+03,1.24998496e+02,-7.04333001e-07,6.29822191,4.66838912,1.33500987,-3.84510095,2.83688616e+01,7.51546284,-1.68753958e-01,-1,-0.7752475026340744
2.46028955e+03,1.24998466e+02,-7.02081764e-07,6.29803928,4.67066347,1.33036984,-3.84510099,2.85096500e+01,7.51955241,-1.56892013e-01,-1,-0.7709023698605953
2.50345967e+03,1.24998436e+02,-6.99900460e-07,6.29786337,4.67295611,1.32569663,-3.84510117,2.86540058e+01,7.52368000,-1.44906772e-01,-1,-0.7663894471498613
2.54662980e+03,1.24998406e+02,-6.97719156e-07,6.29768746,4.67524874,1.32102341,-3.84510135,2.87983616e+01,7.52780759,-1.32921532e-01,-1,-0.7618765233937461
2.59080833e+03,1.24998376e+02,-6.95353237e-07,6.29751572,4.67755225,1.31633052,-3.84510154,2.89355154e+01,7.53195816,-1.20858506e-01,-1,-0.7572581834085008
2.63590384e+03,1.24998345e+02,-6.92819441e-07,6.29734776,4.67986565,1.31161973,-3.84510173,2.90661204e+01,7.53612962,-1.08724747e-01,-1,-0.752543984068051
2.68099935e+03,1.24998313e+02,-6.90285646e-07,6.29717981,4.68217906,1.30690895,-3.84510193,2.91967253e+01,7.54030109,-9.65909883e-02,-1,-0.7478297847276013
