star_age,star_mass,star_mdot,log_L,log_Teff,log_R,log_surf_z,v_wind_Km_per_s,log_center_T,log_center_Rho,phase,x
3.87024407e+02,1.74999447e+02,-1.36116850e-06,6.51457534,4.62800026,1.52396429,-3.84509888,3.51591382e+01,7.41086787,-6.17698984e-01,-1,-1.0
3.93061280e+02,1.74999439e+02,-1.36007013e-06,6.51435910,4.62852729,1.52280212,-3.84509889,3.52138924e+01,7.41175583,-6.15048603e-01,-1,-0.9990307826818314
3.99098154e+02,1.74999431e+02,-1.35897176e-06,6.51414286,4.62905432,1.52163994,-3.84509889,3.52686465e+01,7.41264379,-6.12398222e-01,-1,-0.9980615652031132
4.05135027e+02,1.74999423e+02,-1.35787339e-06,6.51392663,4.62958135,1.52047776,-3.84509890,3.53234006e+01,7.41353174,-6.09747842e-01,-1,-0.9970923478849446
4.11171900e+02,1.74999415e+02,-1.35677502e-06,6.51371039,4.63010838,1.51931558,-3.84509890,3.53781547e+01,7.41441970,-6.07097461e-01,-1,-0.996123130566776
4.17208773e+02,1.74999407e+02,-1.35567666e-06,6.51349415,4.63063541,1.51815340,-3.84509891,3.54329089e+01,7.41530766,-6.04447080e-01,-1,-0.9951539132486074
4.23245646e+02,1.74999399e+02,-1.35457829e-06,6.51327791,4.63116244,1.51699122,-3.84509892,3.54876630e+01,7.41619562,-6.01796699e-01,-1,-0.9941846959304388
4.29282519e+02,1.74999390e+02,-1.35347992e-06,6.51306167,4.63168947,1.51582905,-3.84509892,3.55424171e+01,7.41708357,-5.99146318e-01,-1,-0.9932154786122702
4.35319392e+02,1.74999382e+02,-1.35238155e-06,6.51284544,4.63221650,1.51466687,-3.84509893,3.55971713e+01,7.41797153,-5.96495938e-01,-1,-0.9922462612941017
4.41356265e+02,1.74999374e+02,-1.35128318e-06,6.51262920,4.63274353,1.51350469,-3.84509893,3.56519254e+01,7.41885949,-5.93845557e-01,-1,-0.991277043975933
4.47601679e+02,1.74999366e+02,-1.35017873e-06,6.51241382,4.63328352,1.51231701,-3.84509894,3.57081006e+01,7.41977248,-5.91120243e-01,-1,-0.9902743454914804
4.54473306e+02,1.74999356e+02,-1.34905604e-06,6.51220102,4.63386244,1.51105277,-3.84509894,3.57685430e+01,7.42076066,-5.88169920e-01,-1,-0.9891711087839341
4.61344933e+02,1.74999347e+02,-1.34793335e-06,6.51198821,4.63444136,1.50978854,-3.84509895,3.58289855e+01,7.42174883,-5.85219596e-01,-1,-0.9880678720763879
4.68216560e+02,1.74999338e+02,-1.34681066e-06,6.51177541,4.63502028,1.50852430,-3.84509895,3.58894279e+01,7.42273701,-5.82269273e-01,-1,-0.9869646353688416
4.75088188e+02,1.74999329e+02,-1.34568797e-06,6.51156261,4.63559920,1.50726006,-3.84509896,3.59498703e+01,7.42372518,-5.79318949e-01,-1,-0.9858613985007457
4.81959815e+02,1.74999320e+02,-1.34456528e-06,6.51134981,4.63617812,1.50599582,-3.84509897,3.60103128e+01,7.42471336,-5.76368626e-01,-1,-0.9847581617931995
4.88831442e+02,1.74999310e+02,-1.34344258e-06,6.51113701,4.63675704,1.50473158,-3.84509897,3.60707552e+01,7.42570153,-5.73418302e-01,-1,-0.9836549250856532
4.95703069e+02,1.74999301e+02,-1.34231989e-06,6.51092420,4.63733596,1.50346734,-3.84509898,3.61311976e+01,7.42668971,-5.70467979e-01,-1,-0.9825516883781069
5.02574697e+02,1.74999292e+02,-1.34119720e-06,6.51071140,4.63791487,1.50220310,-3.84509898,3.61916401e+01,7.42767788,-5.67517655e-01,-1,-0.9814484515100111
5.10242721e+02,1.74999282e+02,-1.34016886e-06,6.51050567,4.63853889,1.50085220,-3.84509899,3.62599571e+01,7.42875522,-5.64299964e-01,-1,-0.9802173536126506
5.18014508e+02,1.74999271e+02,-1.33915282e-06,6.51030085,4.63916879,1.49949000,-3.84509900,3.63293002e+01,7.42984417,-5.61047437e-01,-1,-0.978969596611051
5.25786295e+02,1.74999261e+02,-1.33813677e-06,6.51009604,4.63979869,1.49812780,-3.84509901,3.63986433e+01,7.43093313,-5.57794911e-01,-1,-0.9777218396094514
5.33558082e+02,1.74999251e+02,-1.33712073e-06,6.50989122,4.64042858,1.49676560,-3.84509903,3.64679863e+01,7.43202208,-5.54542384e-01,-1,-0.9764740826078517
5.41329869e+02,1.74999240e+02,-1.33610468e-06,6.50968641,4.64105848,1.49540340,-3.84509904,3.65373294e+01,7.43311104,-5.51289857e-01,-1,-0.9752263256062521
5.49101656e+02,1.74999230e+02,-1.33508864e-06,6.50948159,4.64168837,1.49404120,-3.84509905,3.66066724e+01,7.43419999,-5.48037330e-01,-1,-0.9739785686046526
5.56873443e+02,1.74999220e+02,-1.33407259e-06,6.50927677,4.64231827,1.49267900,-3.84509906,3.66760155e+01,7.43528894,-5.44784804e-01,-1,-0.972730811603053
5.64645230e+02,1.74999209e+02,-1.33305655e-06,6.50907196,4.64294816,1.49131680,-3.84509907,3.67453585e+01,7.43637790,-5.41532277e-01,-1,-0.9714830546014533
5.72426985e+02,1.74999199e+02,-1.33203933e-06,6.50886723,4.64357859,1.48995359,-3.84509908,3.68147330e+01,7.43746791,-5.38276580e-01,-1,-0.9702336972418162
5.81274023e+02,1.74999187e+02,-1.33089677e-06,6.50867206,4.64426577,1.48848164,-3.84509909,3.68874650e+01,7.43867089,-5.34682034e-01,-1,-0.9688133091627401
5.90121062e+02,1.74999175e+02,-1.32975422e-06,6.50847689,4.64495295,1.48700970,-3.84509911,3.69601970e+01,7.43987388,-5.31087488e-01,-1,-0.9673929209231146
5.98968100e+02,1.74999164e+02,-1.32861166e-06,6.50828172,4.64564013,1.48553776,-3.84509912,3.70329289e+01,7.44107687,-5.27492943e-01,-1,-0.9659725328440386
6.07815138e+02,1.74999152e+02,-1.32746910e-06,6.50808655,4.64632731,1.48406581,-3.84509914,3.71056609e+01,7.44227985,-5.23898397e-01,-1,-0.9645521447649625
6.16662177e+02,1.74999140e+02,-1.32632654e-06,6.50789138,4.64701449,1.48259387,-3.84509915,3.71783929e+01,7.44348284,-5.20303851e-01,-1,-0.963131756525337
6.25509215e+02,1.74999129e+02,-1.32518399e-06,6.50769622,4.64770167,1.48112193,-3.84509917,3.72511249e+01,7.44468583,-5.16709306e-01,-1,-0.961711368446261
6.34356253e+02,1.74999117e+02,-1.32404143e-06,6.50750105,4.64838884,1.47964999,-3.84509918,3.73238569e+01,7.44588881,-5.13114760e-01,-1,-0.9602909803671851
6.43203291e+02,1.74999105e+02,-1.32289887e-06,6.50730588,4.64907602,1.47817804,-3.84509919,3.73965888e+01,7.44709180,-5.09520214e-01,-1,-0.958870592288109
6.52050330e+02,1.74999094e+02,-1.32175632e-06,6.50711071,4.64976320,1.47670610,-3.84509921,3.74693208e+01,7.44829479,-5.05925668e-01,-1,-0.9574502040484835
6.61614719e+02,1.74999081e+02,-1.32019245e-06,6.50691919,4.65048864,1.47515946,-3.84509921,3.75346962e+01,7.44957306,-5.02105349e-01,-1,-0.9559146455802995
6.71560023e+02,1.74999068e+02,-1.31840486e-06,6.50672961,4.65123440,1.47357315,-3.84509922,3.75961651e+01,7.45089131,-4.98165144e-01,-1,-0.9543179313755694
6.81505327e+02,1.74999055e+02,-1.31661727e-06,6.50654003,4.65198016,1.47198685,-3.84509922,3.76576341e+01,7.45220956,-4.94224938e-01,-1,-0.9527212171708394
6.91450631e+02,1.74999042e+02,-1.31482968e-06,6.50635045,4.65272592,1.47040054,-3.84509922,3.77191031e+01,7.45352781,-4.90284733e-01,-1,-0.9511245029661093
7.01395935e+02,1.74999029e+02,-1.31304209e-06,6.50616087,4.65347167,1.46881424,-3.84509922,3.77805721e+01,7.45484606,-4.86344528e-01,-1,-0.9495277887613792
7.11341239e+02,1.74999016e+02,-1.31125451e-06,6.50597129,4.65421743,1.46722793,-3.84509922,3.78420411e+01,7.45616430,-4.82404322e-01,-1,-0.947931074556649
7.21286544e+02,1.74999003e+02,-1.30946692e-06,6.50578171,4.65496319,1.46564163,-3.84509923,3.79035100e+01,7.45748255,-4.78464117e-01,-1,-0.9463343601913694
7.31619774e+02,1.74998990e+02,-1.30764029e-06,6.50559492,4.65572804,1.46401853,-3.84509923,3.79659200e+01,7.45883890,-4.74409803e-01,-1,-0.9446753646371115
7.42557270e+02,1.74998975e+02,-1.30575285e-06,6.50541250,4.65652263,1.46233814,-3.84509924,3.80297958e+01,7.46025458,-4.70177745e-01,-1,-0.942919354441005
7.53494765e+02,1.74998961e+02,-1.30386540e-06,6.50523007,4.65731722,1.46065774,-3.84509924,3.80936715e+01,7.46167027,-4.65945687e-01,-1,-0.9411633444054482
7.64432261e+02,1.74998947e+02,-1.30197796e-06,6.50504764,4.65811181,1.45897735,-3.84509925,3.81575473e+01,7.46308596,-4.61713629e-01,-1,-0.9394073342093417
7.75369757e+02,1.74998933e+02,-1.30009052e-06,6.50486522,4.65890640,1.45729695,-3.84509926,3.82214230e+01,7.46450164,-4.57481571e-01,-1,-0.9376513240132353
7.86307252e+02,1.74998919e+02,-1.29820308e-06,6.50468279,4.65970099,1.45561656,-3.84509926,3.82852988e+01,7.46591733,-4.53249513e-01,-1,-0.9358953139776783
7.97352268e+02,1.74998904e+02,-1.29633408e-06,6.50450144,4.66050027,1.45392733,-3.84509927,3.83502138e+01,7.46734256,-4.48988780e-01,-1,-0.934122041492627
8.09347220e+02,1.74998889e+02,-1.29462803e-06,6.50432958,4.66134096,1.45216002,-3.84509929,3.84243107e+01,7.46885209,-4.44474709e-01,-1,-0.9321962571985063
8.21342172e+02,1.74998874e+02,-1.29292198e-06,6.50415773,4.66218165,1.45039272,-3.84509932,3.84984077e+01,7.47036162,-4.39960637e-01,-1,-0.9302704729043857
8.33337124e+02,1.74998858e+02,-1.29121593e-06,6.50398587,4.66302234,1.44862542,-3.84509934,3.85725046e+01,7.47187115,-4.35446566e-01,-1,-0.928344688610265
8.45332076e+02,1.74998843e+02,-1.28950988e-06,6.50381402,4.66386302,1.44685811,-3.84509936,3.86466016e+01,7.47338068,-4.30932494e-01,-1,-0.9264189043161444
8.57327028e+02,1.74998827e+02,-1.28780383e-06,6.50364216,4.66470371,1.44509081,-3.84509938,3.87206985e+01,7.47489021,-4.26418423e-01,-1,-0.9244931200220237
8.69321980e+02,1.74998812e+02,-1.28609778e-06,6.50347030,4.66554440,1.44332351,-3.84509941,3.87947955e+01,7.47639975,-4.21904352e-01,-1,-0.922567335727903
8.81594599e+02,1.74998796e+02,-1.28433960e-06,6.50330100,4.66639631,1.44153504,-3.84509943,3.88685149e+01,7.47793219,-4.17321391e-01,-1,-0.9205969721184507
8.94852468e+02,1.74998779e+02,-1.28239645e-06,6.50314076,4.66728803,1.43967148,-3.84509946,3.89408947e+01,7.47954596,-4.12493991e-01,-1,-0.9184684270526839
9.08110337e+02,1.74998762e+02,-1.28045330e-06,6.50298052,4.66817975,1.43780791,-3.84509949,3.90132744e+01,7.48115972,-4.07666590e-01,-1,-0.9163398819869172
9.21368205e+02,1.74998746e+02,-1.27851015e-06,6.50282029,4.66907147,1.43594435,-3.84509951,3.90856542e+01,7.48277348,-4.02839190e-01,-1,-0.9142113370816999
9.34626074e+02,1.74998729e+02,-1.27656700e-06,6.50266005,4.66996319,1.43408079,-3.84509954,3.91580340e+01,7.48438725,-3.98011790e-01,-1,-0.9120827920159331
9.47883943e+02,1.74998712e+02,-1.27462386e-06,6.50249981,4.67085492,1.43221722,-3.84509957,3.92304137e+01,7.48600101,-3.93184390e-01,-1,-0.9099542469501664
9.61141811e+02,1.74998695e+02,-1.27268071e-06,6.50233957,4.67174664,1.43035366,-3.84509960,3.93027935e+01,7.48761477,-3.88356989e-01,-1,-0.9078257020449492
9.74399680e+02,1.74998678e+02,-1.27073756e-06,6.50217933,4.67263836,1.42849010,-3.84509963,3.93751732e+01,7.48922853,-3.83529589e-01,-1,-0.9056971569791824
9.88612769e+02,1.74998660e+02,-1.26793250e-06,6.50202444,4.67356929,1.42655080,-3.84509963,3.94247600e+01,7.49092098,-3.78466270e-01,-1,-0.9034152517604588
1.00314709e+03,1.74998642e+02,-1.26483759e-06,6.50187135,4.67451340,1.42458603,-3.84509963,3.94666817e+01,7.49263988,-3.73323615e-01,-1,-0.9010817728847194
1.01768141e+03,1.74998624e+02,-1.26174268e-06,6.50171826,4.67545751,1.42262126,-3.84509964,3.95086034e+01,7.49435878,-3.68180959e-01,-1,-0.8987482941695295
1.03221573e+03,1.74998606e+02,-1.25864777e-06,6.50156517,4.67640163,1.42065649,-3.84509964,3.95505251e+01,7.49607767,-3.63038304e-01,-1,-0.8964148154543397
1.04675005e+03,1.74998588e+02,-1.25555285e-06,6.50141208,4.67734574,1.41869172,-3.84509964,3.95924467e+01,7.49779657,-3.57895648e-01,-1,-0.8940813367391498
1.06128437e+03,1.74998569e+02,-1.25245794e-06,6.50125899,4.67828985,1.41672695,-3.84509964,3.96343684e+01,7.49951547,-3.52752992e-01,-1,-0.89174785802396
1.07684913e+03,1.74998550e+02,-1.24928545e-06,6.50111253,4.67927154,1.41469034,-3.84509965,3.96768768e+01,7.50131061,-3.47381190e-01,-1,-0.8892489426177326
1.09252267e+03,1.74998531e+02,-1.24610478e-06,6.50096677,4.68025719,1.41264615,-3.84509966,3.97194471e+01,7.50311380,-3.41985198e-01,-1,-0.8867325626301117
1.10819621e+03,1.74998511e+02,-1.24292410e-06,6.50082102,4.68124285,1.41060196,-3.84509967,3.97620175e+01,7.50491698,-3.36589206e-01,-1,-0.8842161826424909
1.12386975e+03,1.74998492e+02,-1.23974342e-06,6.50067526,4.68222850,1.40855777,-3.84509967,3.98045878e+01,7.50672017,-3.31193214e-01,-1,-0.8816998026548701
1.13954329e+03,1.74998473e+02,-1.23656274e-06,6.50052950,4.68321416,1.40651358,-3.84509968,3.98471581e+01,7.50852336,-3.25797222e-01,-1,-0.8791834226672494
1.15608296e+03,1.74998452e+02,-1.23324026e-06,6.50038928,4.68422813,1.40441554,-3.84509970,3.98874213e+01,7.51038436,-3.20226996e-01,-1,-0.8765279858871823
1.17285239e+03,1.74998432e+02,-1.22988017e-06,6.50025052,4.68524961,1.40230320,-3.84509971,3.99270724e+01,7.51226070,-3.14610549e-01,-1,-0.8738356612396676
1.18962183e+03,1.74998412e+02,-1.22652008e-06,6.50011176,4.68627108,1.40019087,-3.84509973,3.99667236e+01,7.51413704,-3.08994102e-01,-1,-0.8711433349866572
1.20639127e+03,1.74998391e+02,-1.22315999e-06,6.49997301,4.68729256,1.39807853,-3.84509974,4.00063747e+01,7.51601338,-3.03377655e-01,-1,-0.8684510087336469
1.22324225e+03,1.74998371e+02,-1.21982171e-06,6.49983482,4.68831623,1.39596210,-3.84509976,4.00469109e+01,7.51789427,-2.97747568e-01,-1,-0.8657455912693217
1.24120781e+03,1.74998349e+02,-1.21678159e-06,6.49970441,4.68936979,1.39378977,-3.84509980,4.00995444e+01,7.51983727,-2.91931033e-01,-1,-0.8628612284737822
1.25917336e+03,1.74998327e+02,-1.21374148e-06,6.49957401,4.69042336,1.39161744,-3.84509984,4.01521780e+01,7.52178027,-2.86114497e-01,-1,-0.8599768672837382
1.27713892e+03,1.74998306e+02,-1.21070137e-06,6.49944360,4.69147693,1.38944510,-3.84509988,4.02048115e+01,7.52372327,-2.80297962e-01,-1,-0.8570925044881987
1.29510448e+03,1.74998284e+02,-1.20766126e-06,6.49931320,4.69253049,1.38727277,-3.84509992,4.02574451e+01,7.52566627,-2.74481426e-01,-1,-0.8542081416926592
1.31307004e+03,1.74998262e+02,-1.20462115e-06,6.49918280,4.69358406,1.38510043,-3.84509996,4.03100786e+01,7.52760927,-2.68664891e-01,-1,-0.8513237788971196
1.33215169e+03,1.74998240e+02,-1.20134696e-06,6.49905889,4.69466380,1.38287899,-3.84510001,4.03572047e+01,7.52960681,-2.62684091e-01,-1,-0.8482602283405265
1.35155025e+03,1.74998217e+02,-1.19800630e-06,6.49893684,4.69575098,1.38064361,-3.84510006,4.04027668e+01,7.53161985,-2.56656647e-01,-1,-0.8451457980221262
1.37094882e+03,1.74998194e+02,-1.19466564e-06,6.49881478,4.69683816,1.37840822,-3.84510011,4.04483290e+01,7.53363288,-2.50629203e-01,-1,-0.8420313660982301
1.39034739e+03,1.74998171e+02,-1.19132498e-06,6.49869272,4.69792534,1.37617283,-3.84510015,4.04938911e+01,7.53564592,-2.44601759e-01,-1,-0.8389169341743341
1.40974595e+03,1.74998148e+02,-1.18798432e-06,6.49857067,4.69901252,1.37393745,-3.84510020,4.05394532e+01,7.53765895,-2.38574315e-01,-1,-0.8358025038559337
1.42914452e+03,1.74998125e+02,-1.18464366e-06,6.49844861,4.70009970,1.37170206,-3.84510025,4.05850154e+01,7.53967199,-2.32546871e-01,-1,-0.8326880719320376
1.44985774e+03,1.74998101e+02,-1.17980463e-06,6.49833105,4.70121965,1.36940337,-3.84510025,4.05815864e+01,7.54175174,-2.26319997e-01,-1,-0.829362573525986
1.47071617e+03,1.74998077e+02,-1.17480010e-06,6.49821399,4.70234323,1.36709769,-3.84510025,4.05727459e+01,7.54383887,-2.20071094e-01,-1,-0.8260137617179841
1.49157460e+03,1.74998052e+02,-1.16979556e-06,6.49809693,4.70346680,1.36479201,-3.84510025,4.05639053e+01,7.54592599,-2.13822191e-01,-1,-0.8226649499099823
1.51243304e+03,1.74998028e+02,-1.16479103e-06,6.49797987,4.70459038,1.36248633,-3.84510025,4.05550648e+01,7.54801311,-2.07573288e-01,-1,-0.8193161364964848
1.53345008e+03,1.74998004e+02,-1.15979172e-06,6.49786341,4.70571735,1.36017416,-3.84510025,4.05464826e+01,7.55010725,-2.01303199e-01,-1,-0.8159418599223971
1.55563749e+03,1.74997979e+02,-1.15483105e-06,6.49775137,4.70686938,1.35781407,-3.84510027,4.05398071e+01,7.55225313,-1.94876781e-01,-1,-0.812379680957011
1.57782491e+03,1.74997953e+02,-1.14987037e-06,6.49763932,4.70802142,1.35545397,-3.84510029,4.05331315e+01,7.55439900,-1.88450362e-01,-1,-0.8088175003861293
1.60001232e+03,1.74997928e+02,-1.14490969e-06,6.49752728,4.70917345,1.35309388,-3.84510030,4.05264560e+01,7.55654488,-1.82023944e-01,-1,-0.8052553214207432
1.62219973e+03,1.74997903e+02,-1.13994901e-06,6.49741524,4.71032549,1.35073379,-3.84510032,4.05197804e+01,7.55869075,-1.75597526e-01,-1,-0.8016931424553572
1.64556561e+03,1.74997876e+02,-1.13558626e-06,6.49730896,4.71149796,1.34833572,-3.84510037,4.05346355e+01,7.56088020,-1.69039915e-01,-1,-0.7979417606472174
1.66918030e+03,1.74997850e+02,-1.13134973e-06,6.49720389,4.71267474,1.34592962,-3.84510044,4.05540362e+01,7.56307885,-1.62454607e-01,-1,-0.7941504325024672
1.69279498e+03,1.74997824e+02,-1.12711321e-06,6.49709883,4.71385152,1.34352353,-3.84510050,4.05734369e+01,7.56527749,-1.55869298e-01,-1,-0.7903591059632126
1.71640967e+03,1.74997797e+02,-1.12287669e-06,6.49699377,4.71502830,1.34111743,-3.84510057,4.05928376e+01,7.56747614,-1.49283990e-01,-1,-0.7865677778184623
1.74002435e+03,1.74997771e+02,-1.11864017e-06,6.49688871,4.71620508,1.33871134,-3.84510063,4.06122383e+01,7.56967479,-1.42698681e-01,-1,-0.7827764512792077
1.76531466e+03,1.74997743e+02,-1.11410848e-06,6.49679269,4.71741211,1.33624928,-3.84510071,4.06215577e+01,7.57193851,-1.35917276e-01,-1,-0.7787161030767769
1.79063104e+03,1.74997715e+02,-1.10957220e-06,6.49669682,4.71861960,1.33378636,-3.84510078,4.06307203e+01,7.57420324,-1.29132822e-01,-1,-0.7746515693472555
1.81594741e+03,1.74997688e+02,-1.10503592e-06,6.49660095,4.71982709,1.33132344,-3.84510086,4.06398830e+01,7.57646797,-1.22348367e-01,-1,-0.7705870372232296
1.84126378e+03,1.74997660e+02,-1.10049964e-06,6.49650508,4.72103458,1.32886052,-3.84510094,4.06490456e+01,7.57873270,-1.15563913e-01,-1,-0.7665225050992038
1.86658016e+03,1.74997632e+02,-1.09596337e-06,6.49640921,4.72224208,1.32639760,-3.84510101,4.06582082e+01,7.58099743,-1.08779458e-01,-1,-0.7624579713696824
1.89286346e+03,1.74997604e+02,-1.09020806e-06,6.49631821,4.72347215,1.32389195,-3.84510104,4.06220743e+01,7.58330953,-1.01853113e-01,-1,-0.7582381990573245
1.91988829e+03,1.74997575e+02,-1.08351792e-06,6.49623097,4.72471955,1.32135354,-3.84510103,4.05512034e+01,7.58565796,-9.48179543e-02,-1,-0.7538993744279903
1.94691312e+03,1.74997547e+02,-1.07682778e-06,6.49614372,4.72596694,1.31881513,-3.84510103,4.04803325e+01,7.58800639,-8.77827959e-02,-1,-0.7495605497986562
1.97393795e+03,1.74997518e+02,-1.07013763e-06,6.49605647,4.72721434,1.31627671,-3.84510102,4.04094616e+01,7.59035482,-8.07476375e-02,-1,-0.745221725169322
2.00123365e+03,1.74997489e+02,-1.06348911e-06,6.49597104,4.72846783,1.31372702,-3.84510101,4.03398502e+01,7.59271681,-7.36740553e-02,-1,-0.7408394124800316
2.02979062e+03,1.74997459e+02,-1.05703438e-06,6.49589408,4.72974970,1.31112480,-3.84510103,4.02761037e+01,7.59514190,-6.64215606e-02,-1,-0.7362546034442242
2.05834759e+03,1.74997429e+02,-1.05057965e-06,6.49581712,4.73103157,1.30852258,-3.84510105,4.02123572e+01,7.59756699,-5.91690659e-02,-1,-0.731669794408417
2.08690456e+03,1.74997400e+02,-1.04412492e-06,6.49574016,4.73231344,1.30592036,-3.84510107,4.01486107e+01,7.59999209,-5.19165712e-02,-1,-0.7270849853726096
2.11581484e+03,1.74997370e+02,-1.03766365e-06,6.49566591,4.73360336,1.30330339,-3.84510109,4.00842549e+01,7.60243402,-4.46278392e-02,-1,-0.722443452570925
2.14584555e+03,1.74997339e+02,-1.03118163e-06,6.49560025,4.73491881,1.30063966,-3.84510113,4.00179671e+01,7.60492936,-3.72241916e-02,-1,-0.7176220352230863
2.17587626e+03,1.74997309e+02,-1.02469961e-06,6.49553459,4.73623426,1.29797592,-3.84510116,3.99516793e+01,7.60742469,-2.98205439e-02,-1,-0.7128006178752476
2.20590696e+03,1.74997278e+02,-1.01821760e-06,6.49546893,4.73754972,1.29531219,-3.84510119,3.98853916e+01,7.60992003,-2.24168962e-02,-1,-0.7079792021329046
2.23679674e+03,1.74997248e+02,-1.01221696e-06,6.49541152,4.73888479,1.29261332,-3.84510127,3.98375474e+01,7.61245462,-1.48942341e-02,-1,-0.7030198614725298
2.26842078e+03,1.74997216e+02,-1.00662776e-06,6.49536117,4.74023665,1.28988444,-3.84510137,3.98054671e+01,7.61502275,-7.26985051e-03,-1,-0.6979426356904972
2.30004481e+03,1.74997185e+02,-1.00103856e-06,6.49531082,4.74158850,1.28715556,-3.84510148,3.97733867e+01,7.61759089,3.54533114e-04,-1,-0.6928654115139602
2.33166884e+03,1.74997153e+02,-9.95449365e-07,6.49526047,4.74294036,1.28442667,-3.84510159,3.97413063e+01,7.62015902,7.97891673e-03,-1,-0.6877881873374232
