star_age,star_mass,star_mdot,log_L,log_Teff,log_R,log_surf_z,v_wind_Km_per_s,log_center_T,log_center_Rho,phase,x
3.87024407e+02,1.99999339e+02,-1.59899317e-06,6.57964840,4.64910687,1.51428762,-3.84509896,4.11682515e+01,7.43534324,-5.86226166e-01,-1,-1.0
3.93050915e+02,1.99999330e+02,-1.59788927e-06,6.57954206,4.64957195,1.51330428,-3.84509897,4.12159525e+01,7.43619672,-5.83668946e-01,-1,-0.9989705537164261
3.99077423e+02,1.99999320e+02,-1.59678537e-06,6.57943572,4.65003704,1.51232093,-3.84509898,4.12636535e+01,7.43705020,-5.81111727e-01,-1,-0.9979411074328522
4.05103931e+02,1.99999311e+02,-1.59568147e-06,6.57932938,4.65050213,1.51133759,-3.84509899,4.13113545e+01,7.43790367,-5.78554507e-01,-1,-0.9969116611492783
4.11130439e+02,1.99999301e+02,-1.59457757e-06,6.57922305,4.65096721,1.51035425,-3.84509901,4.13590555e+01,7.43875715,-5.75997287e-01,-1,-0.9958822148657045
4.17156947e+02,1.99999292e+02,-1.59347366e-06,6.57911671,4.65143230,1.50937091,-3.84509902,4.14067565e+01,7.43961062,-5.73440067e-01,-1,-0.9948527685821306
4.23183455e+02,1.99999282e+02,-1.59236976e-06,6.57901037,4.65189739,1.50838756,-3.84509903,4.14544575e+01,7.44046410,-5.70882847e-01,-1,-0.9938233222985567
4.29209963e+02,1.99999272e+02,-1.59126586e-06,6.57890403,4.65236247,1.50740422,-3.84509904,4.15021585e+01,7.44131758,-5.68325627e-01,-1,-0.9927938760149828
4.35236471e+02,1.99999263e+02,-1.59016196e-06,6.57879769,4.65282756,1.50642088,-3.84509905,4.15498596e+01,7.44217105,-5.65768408e-01,-1,-0.991764429731409
4.41262979e+02,1.99999253e+02,-1.58905806e-06,6.57869135,4.65329264,1.50543754,-3.84509906,4.15975606e+01,7.44302453,-5.63211188e-01,-1,-0.9907349834478351
4.47289487e+02,1.99999244e+02,-1.58795416e-06,6.57858501,4.65375773,1.50445420,-3.84509907,4.16452616e+01,7.44387800,-5.60653968e-01,-1,-0.9897055371642611
4.53315995e+02,1.99999234e+02,-1.58685026e-06,6.57847867,4.65422282,1.50347085,-3.84509908,4.16929626e+01,7.44473148,-5.58096748e-01,-1,-0.9886760908806873
4.59342503e+02,1.99999225e+02,-1.58574636e-06,6.57837233,4.65468790,1.50248751,-3.84509909,4.17406636e+01,7.44558496,-5.55539528e-01,-1,-0.9876466445971134
4.65530921e+02,1.99999215e+02,-1.58458909e-06,6.57826860,4.65516275,1.50148595,-3.84509910,4.17881342e+01,7.44645758,-5.52924792e-01,-1,-0.9865895408960478
4.72595781e+02,1.99999204e+02,-1.58314292e-06,6.57817903,4.65569046,1.50038576,-3.84509910,4.18343578e+01,7.44743386,-5.49998708e-01,-1,-0.9853827236362068
4.79660640e+02,1.99999193e+02,-1.58169675e-06,6.57808946,4.65621816,1.49928556,-3.84509911,4.18805814e+01,7.44841014,-5.47072624e-01,-1,-0.9841759065471856
4.86725499e+02,1.99999182e+02,-1.58025058e-06,6.57799989,4.65674587,1.49818537,-3.84509911,4.19268050e+01,7.44938642,-5.44146541e-01,-1,-0.9829690894581642
4.93790359e+02,1.99999170e+02,-1.57880441e-06,6.57791032,4.65727357,1.49708517,-3.84509912,4.19730286e+01,7.45036270,-5.41220457e-01,-1,-0.9817622721983232
5.00855218e+02,1.99999159e+02,-1.57735825e-06,6.57782075,4.65780127,1.49598498,-3.84509912,4.20192522e+01,7.45133899,-5.38294374e-01,-1,-0.980555455109302
5.07920077e+02,1.99999148e+02,-1.57591208e-06,6.57773118,4.65832898,1.49488479,-3.84509913,4.20654758e+01,7.45231527,-5.35368290e-01,-1,-0.9793486380202807
5.14984937e+02,1.99999137e+02,-1.57446591e-06,6.57764161,4.65885668,1.49378459,-3.84509913,4.21116994e+01,7.45329155,-5.32442206e-01,-1,-0.9781418207604397
5.22049796e+02,1.99999126e+02,-1.57301974e-06,6.57755204,4.65938439,1.49268440,-3.84509914,4.21579229e+01,7.45426783,-5.29516123e-01,-1,-0.9769350036714184
5.29114655e+02,1.99999115e+02,-1.57157357e-06,6.57746247,4.65991209,1.49158421,-3.84509914,4.22041465e+01,7.45524411,-5.26590039e-01,-1,-0.9757281865823971
5.36403841e+02,1.99999104e+02,-1.57012446e-06,6.57737624,4.66045255,1.49046017,-3.84509915,4.22518124e+01,7.45624548,-5.23588616e-01,-1,-0.9744830500227213
5.44433411e+02,1.99999091e+02,-1.56866564e-06,6.57730101,4.66103512,1.48925742,-3.84509915,4.23042382e+01,7.45732965,-5.20338538e-01,-1,-0.9731114412908991
5.52462980e+02,1.99999079e+02,-1.56720682e-06,6.57722578,4.66161768,1.48805468,-3.84509916,4.23566640e+01,7.45841382,-5.17088461e-01,-1,-0.9717398327298966
5.60492549e+02,1.99999066e+02,-1.56574800e-06,6.57715056,4.66220025,1.48685193,-3.84509916,4.24090899e+01,7.45949799,-5.13838383e-01,-1,-0.9703682241688941
5.68522118e+02,1.99999054e+02,-1.56428918e-06,6.57707533,4.66278282,1.48564919,-3.84509917,4.24615157e+01,7.46058216,-5.10588305e-01,-1,-0.9689966156078916
5.76551687e+02,1.99999041e+02,-1.56283036e-06,6.57700011,4.66336538,1.48444644,-3.84509917,4.25139416e+01,7.46166633,-5.07338227e-01,-1,-0.9676250070468891
5.84581257e+02,1.99999029e+02,-1.56137154e-06,6.57692488,4.66394795,1.48324370,-3.84509918,4.25663674e+01,7.46275050,-5.04088150e-01,-1,-0.966253398315067
5.92610826e+02,1.99999016e+02,-1.55991271e-06,6.57684965,4.66453051,1.48204095,-3.84509918,4.26187933e+01,7.46383467,-5.00838072e-01,-1,-0.9648817897540645
6.00640395e+02,1.99999003e+02,-1.55845389e-06,6.57677443,4.66511308,1.48083821,-3.84509919,4.26712191e+01,7.46491884,-4.97587994e-01,-1,-0.9635101811930619
6.09467550e+02,1.99998990e+02,-1.55709816e-06,6.57671028,4.66573732,1.47955765,-3.84509920,4.27315577e+01,7.46608546,-4.94090510e-01,-1,-0.9620023292314814
6.18532619e+02,1.99998976e+02,-1.55577318e-06,6.57664945,4.66637400,1.47825388,-3.84509922,4.27942566e+01,7.46727667,-4.90519227e-01,-1,-0.9604538368719938
6.27597688e+02,1.99998962e+02,-1.55444820e-06,6.57658861,4.66701067,1.47695012,-3.84509923,4.28569555e+01,7.46846788,-4.86947943e-01,-1,-0.9589053445125062
6.36662757e+02,1.99998948e+02,-1.55312321e-06,6.57652777,4.66764734,1.47564635,-3.84509925,4.29196544e+01,7.46965909,-4.83376660e-01,-1,-0.9573568521530187
6.45727826e+02,1.99998934e+02,-1.55179823e-06,6.57646693,4.66828402,1.47434258,-3.84509927,4.29823533e+01,7.47085030,-4.79805376e-01,-1,-0.9558083597935311
6.54792895e+02,1.99998920e+02,-1.55047325e-06,6.57640609,4.66892069,1.47303882,-3.84509928,4.30450522e+01,7.47204151,-4.76234093e-01,-1,-0.9542598674340435
6.63857964e+02,1.99998906e+02,-1.54914827e-06,6.57634526,4.66955736,1.47173505,-3.84509930,4.31077511e+01,7.47323272,-4.72662810e-01,-1,-0.9527113750745559
6.72923033e+02,1.99998892e+02,-1.54782329e-06,6.57628442,4.67019404,1.47043128,-3.84509931,4.31704501e+01,7.47442393,-4.69091526e-01,-1,-0.9511628827150683
6.81988102e+02,1.99998878e+02,-1.54649830e-06,6.57622358,4.67083071,1.46912752,-3.84509933,4.32331490e+01,7.47561514,-4.65520243e-01,-1,-0.9496143903555807
6.92011790e+02,1.99998862e+02,-1.54500941e-06,6.57617273,4.67151426,1.46773499,-3.84509935,4.32972908e+01,7.47689903,-4.61670995e-01,-1,-0.9479021469868996
7.02313044e+02,1.99998847e+02,-1.54347305e-06,6.57612476,4.67221139,1.46631676,-3.84509936,4.33618504e+01,7.47820974,-4.57741265e-01,-1,-0.9461424898776
7.12614297e+02,1.99998831e+02,-1.54193669e-06,6.57607680,4.67290851,1.46489853,-3.84509938,4.34264101e+01,7.47952046,-4.53811534e-01,-1,-0.9443828329391202
7.22915550e+02,1.99998815e+02,-1.54040034e-06,6.57602884,4.67360564,1.46348030,-3.84509940,4.34909697e+01,7.48083118,-4.49881803e-01,-1,-0.9426231760006403
7.33216804e+02,1.99998799e+02,-1.53886398e-06,6.57598088,4.67430276,1.46206207,-3.84509942,4.35555294e+01,7.48214190,-4.45952072e-01,-1,-0.9408635188913408
7.43518057e+02,1.99998783e+02,-1.53732762e-06,6.57593292,4.67499988,1.46064384,-3.84509944,4.36200890e+01,7.48345261,-4.42022341e-01,-1,-0.9391038619528609
7.53819310e+02,1.99998768e+02,-1.53579126e-06,6.57588496,4.67569701,1.45922561,-3.84509946,4.36846486e+01,7.48476333,-4.38092610e-01,-1,-0.9373442050143811
7.64120564e+02,1.99998752e+02,-1.53425491e-06,6.57583700,4.67639413,1.45780739,-3.84509948,4.37492083e+01,7.48607405,-4.34162879e-01,-1,-0.9355845479050815
7.74421817e+02,1.99998736e+02,-1.53271855e-06,6.57578903,4.67709126,1.45638916,-3.84509950,4.38137679e+01,7.48738476,-4.30233148e-01,-1,-0.9338248909666017
7.85070535e+02,1.99998720e+02,-1.53090636e-06,6.57574332,4.67780516,1.45493850,-3.84509951,4.38725947e+01,7.48872845,-4.26204331e-01,-1,-0.9320058801613516
7.96626089e+02,1.99998702e+02,-1.52837427e-06,6.57570348,4.67856285,1.45340320,-3.84509951,4.39164595e+01,7.49015819,-4.21916913e-01,-1,-0.9300319639033897
8.08181642e+02,1.99998685e+02,-1.52584218e-06,6.57566364,4.67932054,1.45186790,-3.84509951,4.39603244e+01,7.49158793,-4.17629495e-01,-1,-0.9280580478162475
8.19737196e+02,1.99998667e+02,-1.52331010e-06,6.57562380,4.68007822,1.45033260,-3.84509951,4.40041893e+01,7.49301767,-4.13342078e-01,-1,-0.9260841315582856
8.31292749e+02,1.99998650e+02,-1.52077801e-06,6.57558396,4.68083591,1.44879730,-3.84509951,4.40480541e+01,7.49444741,-4.09054660e-01,-1,-0.9241102154711435
8.42848302e+02,1.99998632e+02,-1.51824592e-06,6.57554412,4.68159360,1.44726200,-3.84509951,4.40919190e+01,7.49587715,-4.04767242e-01,-1,-0.9221362993840013
8.54403856e+02,1.99998615e+02,-1.51571384e-06,6.57550427,4.68235129,1.44572671,-3.84509951,4.41357838e+01,7.49730689,-4.00479824e-01,-1,-0.9201623831260394
8.65959409e+02,1.99998597e+02,-1.51318175e-06,6.57546443,4.68310898,1.44419141,-3.84509951,4.41796487e+01,7.49873662,-3.96192406e-01,-1,-0.9181884670388972
8.78620243e+02,1.99998578e+02,-1.51046237e-06,6.57543116,4.68391518,1.44256237,-3.84509952,4.42239373e+01,7.50026205,-3.91618829e-01,-1,-0.9160257471838426
8.91295785e+02,1.99998560e+02,-1.50774049e-06,6.57539798,4.68472203,1.44093208,-3.84509952,4.42682316e+01,7.50178876,-3.87041445e-01,-1,-0.9138605149126526
9.03971327e+02,1.99998541e+02,-1.50501861e-06,6.57536480,4.68552888,1.43930179,-3.84509953,4.43125258e+01,7.50331546,-3.82464060e-01,-1,-0.9116952826414626
9.16646868e+02,1.99998522e+02,-1.50229673e-06,6.57533162,4.68633573,1.43767150,-3.84509954,4.43568201e+01,7.50484216,-3.77886676e-01,-1,-0.9095300505410923
9.29322410e+02,1.99998503e+02,-1.49957486e-06,6.57529844,4.68714258,1.43604122,-3.84509955,4.44011144e+01,7.50636886,-3.73309291e-01,-1,-0.9073648182699023
9.41997952e+02,1.99998484e+02,-1.49685298e-06,6.57526526,4.68794943,1.43441093,-3.84509955,4.44454087e+01,7.50789556,-3.68731906e-01,-1,-0.9051995859987123
9.55440489e+02,1.99998464e+02,-1.49394230e-06,6.57523600,4.68878698,1.43272119,-3.84509957,4.44878592e+01,7.50948300,-3.63971593e-01,-1,-0.9029033358723615
9.69191201e+02,1.99998443e+02,-1.49095575e-06,6.57520833,4.68963687,1.43100757,-3.84509958,4.45295689e+01,7.51109484,-3.59137781e-01,-1,-0.9005544433852205
9.82941912e+02,1.99998423e+02,-1.48796920e-06,6.57518065,4.69048676,1.42929395,-3.84509959,4.45712786e+01,7.51270668,-3.54303968e-01,-1,-0.8982055510688993
9.96692624e+02,1.99998403e+02,-1.48498265e-06,6.57515297,4.69133665,1.42758033,-3.84509961,4.46129883e+01,7.51431852,-3.49470155e-01,-1,-0.8958566585817583
1.01044334e+03,1.99998382e+02,-1.48199611e-06,6.57512530,4.69218655,1.42586671,-3.84509962,4.46546981e+01,7.51593036,-3.44636342e-01,-1,-0.8935077654113386
1.02420367e+03,1.99998362e+02,-1.47901118e-06,6.57509767,4.69303677,1.42415245,-3.84509964,4.46964987e+01,7.51754285,-3.39800570e-01,-1,-0.8911572299803311
1.03912386e+03,1.99998340e+02,-1.47622179e-06,6.57507543,4.69392669,1.42236149,-3.84509967,4.47492667e+01,7.51923423,-3.34728512e-01,-1,-0.8886085676130504
1.05404406e+03,1.99998318e+02,-1.47343240e-06,6.57505319,4.69481661,1.42057052,-3.84509970,4.48020347e+01,7.52092561,-3.29656453e-01,-1,-0.8860599035375727
1.06896426e+03,1.99998297e+02,-1.47064301e-06,6.57503095,4.69570654,1.41877955,-3.84509974,4.48548027e+01,7.52261699,-3.24584394e-01,-1,-0.883511239462095
1.08388445e+03,1.99998275e+02,-1.46785362e-06,6.57500871,4.69659646,1.41698859,-3.84509977,4.49075708e+01,7.52430837,-3.19512335e-01,-1,-0.8809625770948143
1.09880465e+03,1.99998253e+02,-1.46506423e-06,6.57498647,4.69748638,1.41519762,-3.84509981,4.49603388e+01,7.52599975,-3.14440277e-01,-1,-0.8784139130193366
1.11372485e+03,1.99998231e+02,-1.46227483e-06,6.57496423,4.69837631,1.41340665,-3.84509984,4.50131068e+01,7.52769113,-3.09368218e-01,-1,-0.8758652489438589
1.12962280e+03,1.99998208e+02,-1.45922003e-06,6.57494533,4.69929573,1.41155836,-3.84509988,4.50617183e+01,7.52944108,-3.04120380e-01,-1,-0.8731495659075228
1.14594244e+03,1.99998185e+02,-1.45605075e-06,6.57492787,4.70022787,1.40968534,-3.84509992,4.51085371e+01,7.53121628,-2.98796729e-01,-1,-0.870361849912246
1.16226209e+03,1.99998161e+02,-1.45288148e-06,6.57491041,4.70116002,1.40781232,-3.84509996,4.51553560e+01,7.53299148,-2.93473078e-01,-1,-0.8675741322087722
1.17858174e+03,1.99998138e+02,-1.44971220e-06,6.57489295,4.70209216,1.40593931,-3.84510000,4.52021748e+01,7.53476668,-2.88149427e-01,-1,-0.8647864145052984
1.19490138e+03,1.99998114e+02,-1.44654293e-06,6.57487549,4.70302431,1.40406629,-3.84510004,4.52489937e+01,7.53654189,-2.82825776e-01,-1,-0.8619986985100215
1.21122103e+03,1.99998091e+02,-1.44337365e-06,6.57485803,4.70395645,1.40219327,-3.84510008,4.52958125e+01,7.53831709,-2.77502125e-01,-1,-0.8592109808065478
1.22754067e+03,1.99998067e+02,-1.44020438e-06,6.57484058,4.70488860,1.40032025,-3.84510012,4.53426314e+01,7.54009229,-2.72178474e-01,-1,-0.856423264811271
1.24496686e+03,1.99998043e+02,-1.43567473e-06,6.57482532,4.70585435,1.39838111,-3.84510013,4.53504346e+01,7.54193377,-2.66656014e-01,-1,-0.8534465282778834
1.26271159e+03,1.99998018e+02,-1.43075347e-06,6.57481071,4.70682979,1.39642294,-3.84510013,4.53470064e+01,7.54379432,-2.61076323e-01,-1,-0.8504153788375239
1.28045631e+03,1.99997992e+02,-1.42583221e-06,6.57479609,4.70780522,1.39446476,-3.84510013,4.53435782e+01,7.54565488,-2.55496631e-01,-1,-0.8473842311053614
1.29820104e+03,1.99997967e+02,-1.42091094e-06,6.57478148,4.70878065,1.39250659,-3.84510013,4.53401500e+01,7.54751544,-2.49916940e-01,-1,-0.844353081665002
1.31594577e+03,1.99997942e+02,-1.41598968e-06,6.57476686,4.70975609,1.39054841,-3.84510013,4.53367218e+01,7.54937599,-2.44337249e-01,-1,-0.8413219322246425
1.33399070e+03,1.99997917e+02,-1.41105231e-06,6.57475281,4.71073942,1.38857472,-3.84510013,4.53333741e+01,7.55125218,-2.38710614e-01,-1,-0.8382395027105938
1.35302616e+03,1.99997891e+02,-1.40606179e-06,6.57474063,4.71174882,1.38654982,-3.84510014,4.53302924e+01,7.55317992,-2.32929086e-01,-1,-0.8349878711599313
1.37206163e+03,1.99997864e+02,-1.40107127e-06,6.57472845,4.71275823,1.38452492,-3.84510015,4.53272107e+01,7.55510766,-2.27147558e-01,-1,-0.831736237901072
1.39109709e+03,1.99997838e+02,-1.39608074e-06,6.57471627,4.71376763,1.38250002,-3.84510016,4.53241290e+01,7.55703540,-2.21366030e-01,-1,-0.8284846063504095
1.41013255e+03,1.99997811e+02,-1.39109022e-06,6.57470409,4.71477704,1.38047513,-3.84510017,4.53210473e+01,7.55896314,-2.15584502e-01,-1,-0.8252329747997472
1.42959709e+03,1.99997784e+02,-1.38630393e-06,6.57469290,4.71579580,1.37843199,-3.84510020,4.53252767e+01,7.56090960,-2.09746626e-01,-1,-0.8219080479325672
1.45001417e+03,1.99997757e+02,-1.38197108e-06,6.57468392,4.71683537,1.37634838,-3.84510025,4.53457370e+01,7.56289760,-2.03783656e-01,-1,-0.8184204084691449
1.47043125e+03,1.99997729e+02,-1.37763822e-06,6.57467493,4.71787493,1.37426476,-3.84510030,4.53661974e+01,7.56488560,-1.97820685e-01,-1,-0.8149327690057224
1.49084833e+03,1.99997701e+02,-1.37330536e-06,6.57466595,4.71891449,1.37218114,-3.84510036,4.53866577e+01,7.56687361,-1.91857715e-01,-1,-0.8114451295423001
1.51126541e+03,1.99997673e+02,-1.36897250e-06,6.57465696,4.71995405,1.37009753,-3.84510041,4.54071181e+01,7.56886161,-1.85894745e-01,-1,-0.8079574900788777
1.53168250e+03,1.99997645e+02,-1.36463964e-06,6.57464798,4.72099362,1.36801391,-3.84510047,4.54275784e+01,7.57084961,-1.79931774e-01,-1,-0.8044698489072584
1.55342420e+03,1.99997616e+02,-1.35998940e-06,6.57464281,4.72206235,1.36587387,-3.84510053,4.54395496e+01,7.57289635,-1.73792692e-01,-1,-0.8007559382539284
1.57548922e+03,1.99997587e+02,-1.35526169e-06,6.57463858,4.72313819,1.36372005,-3.84510059,4.54494487e+01,7.57495743,-1.67610626e-01,-1,-0.7969867981754645
1.59755424e+03,1.99997557e+02,-1.35053399e-06,6.57463434,4.72421404,1.36156624,-3.84510065,4.54593479e+01,7.57701851,-1.61428559e-01,-1,-0.7932176580970005
1.61961926e+03,1.99997528e+02,-1.34580628e-06,6.57463011,4.72528989,1.35941242,-3.84510072,4.54692470e+01,7.57907958,-1.55246493e-01,-1,-0.7894485180185367
1.64168428e+03,1.99997498e+02,-1.34107858e-06,6.57462587,4.72636574,1.35725861,-3.84510078,4.54791461e+01,7.58114066,-1.49064426e-01,-1,-0.7856793779400728
1.66374930e+03,1.99997469e+02,-1.33635087e-06,6.57462164,4.72744159,1.35510480,-3.84510084,4.54890453e+01,7.58320174,-1.42882360e-01,-1,-0.7819102378616088
1.68695673e+03,1.99997438e+02,-1.32997660e-06,6.57462110,4.72854776,1.35289218,-3.84510086,4.54441686e+01,7.58532381,-1.36516712e-01,-1,-0.7779459516506222
1.71067924e+03,1.99997408e+02,-1.32285995e-06,6.57462223,4.72966761,1.35065305,-3.84510085,4.53745951e+01,7.58747338,-1.30068294e-01,-1,-0.7738936796289897
1.73440174e+03,1.99997377e+02,-1.31574330e-06,6.57462336,4.73078746,1.34841392,-3.84510084,4.53050217e+01,7.58962294,-1.23619876e-01,-1,-0.7698414093155542
1.75812425e+03,1.99997346e+02,-1.30862664e-06,6.57462449,4.73190730,1.34617479,-3.84510083,4.52354483e+01,7.59177251,-1.17171457e-01,-1,-0.7657891372939217
1.78184675e+03,1.99997315e+02,-1.30150999e-06,6.57462562,4.73302715,1.34393566,-3.84510082,4.51658749e+01,7.59392208,-1.10723039e-01,-1,-0.7617368669804863
1.80673099e+03,1.99997283e+02,-1.29451969e-06,6.57463189,4.73417770,1.34163770,-3.84510083,4.51009008e+01,7.59613357,-1.04112102e-01,-1,-0.7574861485897432
1.83193496e+03,1.99997251e+02,-1.28756417e-06,6.57463957,4.73533670,1.33932353,-3.84510084,4.50371925e+01,7.59836209,-9.74564348e-02,-1,-0.7531808140165861
1.85713894e+03,1.99997219e+02,-1.28060866e-06,6.57464726,4.73649571,1.33700937,-3.84510086,4.49734843e+01,7.60059062,-9.08007676e-02,-1,-0.748875477735232
1.88234292e+03,1.99997187e+02,-1.27365314e-06,6.57465494,4.73765471,1.33469521,-3.84510087,4.49097760e+01,7.60281914,-8.41451004e-02,-1,-0.7445701414538779
1.90813582e+03,1.99997155e+02,-1.26664910e-06,6.57466576,4.73882956,1.33235091,-3.84510089,4.48445061e+01,7.60507789,-7.74151138e-02,-1,-0.7401642060352918
1.93475943e+03,1.99997122e+02,-1.25957662e-06,6.57468101,4.74002678,1.32996409,-3.84510091,4.47770335e+01,7.60737926,-7.05802955e-02,-1,-0.7356163689844125
1.96138303e+03,1.99997089e+02,-1.25250414e-06,6.57469626,4.74122400,1.32757728,-3.84510094,4.47095608e+01,7.60968062,-6.37454773e-02,-1,-0.7310685336417302
1.98800664e+03,1.99997056e+02,-1.24543166e-06,6.57471151,4.74242122,1.32519047,-3.84510096,4.46420881e+01,7.61198199,-5.69106590e-02,-1,-0.726520696590851
2.01513944e+03,1.99997022e+02,-1.23866046e-06,6.57473010,4.74363184,1.32277851,-3.84510101,4.45857903e+01,7.61430881,-4.99988821e-02,-1,-0.721885879857354
2.04329870e+03,1.99996988e+02,-1.23249657e-06,6.57475541,4.74486949,1.32031588,-3.84510110,4.45520192e+01,7.61668694,-4.29319686e-02,-1,-0.7170757235354523
2.07145795e+03,1.99996954e+02,-1.22633268e-06,6.57478072,4.74610713,1.31785324,-3.84510118,4.45182480e+01,7.61906506,-3.58650552e-02,-1,-0.7122655689217477
2.09961721e+03,1.99996920e+02,-1.22016879e-06,6.57480603,4.74734478,1.31539061,-3.84510127,4.44844769e+01,7.62144319,-2.87981418e-02,-1,-0.7074554125998462
2.12777647e+03,1.99996886e+02,-1.21400490e-06,6.57483134,4.74858242,1.31292798,-3.84510136,4.44507058e+01,7.62382132,-2.17312283e-02,-1,-0.7026452562779446
2.15720531e+03,1.99996851e+02,-1.20757233e-06,6.57486591,4.74985568,1.31039874,-3.84510146,4.44085479e+01,7.62626787,-1.44569124e-02,-1,-0.6976182306823774
2.18718115e+03,1.99996816e+02,-1.20102400e-06,6.57490448,4.75114429,1.30784082,-3.84510157,4.43627766e+01,7.62874391,-7.09323694e-03,-1,-0.6924977667113671
2.21715699e+03,1.99996780e+02,-1.19447567e-06,6.57494305,4.75243289,1.30528289,-3.84510167,4.43170052e+01,7.63121995,2.70438483e-04,-1,-0.6873773027403567
2.24713283e+03,1.99996745e+02,-1.18792733e-06,6.57498161,4.75372150,1.30272497,-3.84510178,4.42712339e+01,7.63369598,7.63411391e-03,-1,-0.6822568387693464
