star_age,star_mass,star_mdot,log_L,log_Teff,log_R,log_surf_z,v_wind_Km_per_s,log_center_T,log_center_Rho,phase,x
3.22520331e+02,2.99999047e+02,-2.95546577e-06,6.80938108,4.65862561,1.61011648,-3.84509871,5.81634878e+01,7.43588252,-7.02389241e-01,-1,-1.0
3.27588214e+02,2.99999032e+02,-2.95562050e-06,6.80942960,4.65904879,1.60929438,-3.84509872,5.82481893e+01,7.43670267,-6.99928118e-01,-1,-0.9989833846327693
3.32656096e+02,2.99999017e+02,-2.95577523e-06,6.80947812,4.65947197,1.60847228,-3.84509872,5.83328907e+01,7.43752282,-6.97466994e-01,-1,-0.9979667694661382
3.37723979e+02,2.99999002e+02,-2.95592996e-06,6.80952665,4.65989515,1.60765017,-3.84509872,5.84175922e+01,7.43834297,-6.95005871e-01,-1,-0.9969501540989074
3.42791861e+02,2.99998987e+02,-2.95608468e-06,6.80957517,4.66031833,1.60682807,-3.84509873,5.85022937e+01,7.43916312,-6.92544748e-01,-1,-0.9959335389322762
3.47859744e+02,2.99998972e+02,-2.95623941e-06,6.80962369,4.66074151,1.60600597,-3.84509873,5.85869952e+01,7.43998328,-6.90083624e-01,-1,-0.9949169235650455
3.52927627e+02,2.99998957e+02,-2.95639414e-06,6.80967221,4.66116469,1.60518387,-3.84509874,5.86716966e+01,7.44080343,-6.87622501e-01,-1,-0.9939003081978147
3.57995509e+02,2.99998942e+02,-2.95654887e-06,6.80972073,4.66158787,1.60436177,-3.84509874,5.87563981e+01,7.44162358,-6.85161377e-01,-1,-0.9928836930311836
3.63063392e+02,2.99998927e+02,-2.95670360e-06,6.80976925,4.66201106,1.60353966,-3.84509875,5.88410996e+01,7.44244373,-6.82700254e-01,-1,-0.9918670776639529
3.68131274e+02,2.99998912e+02,-2.95685833e-06,6.80981777,4.66243424,1.60271756,-3.84509875,5.89258010e+01,7.44326388,-6.80239130e-01,-1,-0.9908504624973218
3.73199157e+02,2.99998897e+02,-2.95701306e-06,6.80986629,4.66285742,1.60189546,-3.84509875,5.90105025e+01,7.44408403,-6.77778007e-01,-1,-0.989833847130091
3.78267039e+02,2.99998882e+02,-2.95716778e-06,6.80991481,4.66328060,1.60107336,-3.84509876,5.90952040e+01,7.44490419,-6.75316883e-01,-1,-0.9888172319634598
3.83334922e+02,2.99998867e+02,-2.95732251e-06,6.80996333,4.66370378,1.60025126,-3.84509876,5.91799055e+01,7.44572434,-6.72855760e-01,-1,-0.9878006165962292
3.88675178e+02,2.99998851e+02,-2.95734949e-06,6.81001078,4.66414631,1.59938992,-3.84509877,5.92664480e+01,7.44658136,-6.70284017e-01,-1,-0.9867293633106765
3.94744480e+02,2.99998834e+02,-2.95703451e-06,6.81005534,4.66464063,1.59842356,-3.84509877,5.93579186e+01,7.44753708,-6.67416183e-01,-1,-0.9855118636798516
4.00813782e+02,2.99998816e+02,-2.95671954e-06,6.81009991,4.66513495,1.59745721,-3.84509878,5.94493891e+01,7.44849280,-6.64548350e-01,-1,-0.9842943640490266
4.06883084e+02,2.99998798e+02,-2.95640457e-06,6.81014448,4.66562927,1.59649085,-3.84509878,5.95408597e+01,7.44944852,-6.61680517e-01,-1,-0.9830768644182015
4.12952386e+02,2.99998780e+02,-2.95608959e-06,6.81018904,4.66612359,1.59552450,-3.84509879,5.96323303e+01,7.45040424,-6.58812683e-01,-1,-0.9818593647873766
4.19021688e+02,2.99998762e+02,-2.95577462e-06,6.81023361,4.66661791,1.59455814,-3.84509879,5.97238008e+01,7.45135997,-6.55944850e-01,-1,-0.9806418651565516
4.25090991e+02,2.99998744e+02,-2.95545965e-06,6.81027818,4.66711223,1.59359178,-3.84509880,5.98152714e+01,7.45231569,-6.53077017e-01,-1,-0.9794243653251269
4.31160293e+02,2.99998726e+02,-2.95514467e-06,6.81032274,4.66760655,1.59262543,-3.84509880,5.99067419e+01,7.45327141,-6.50209183e-01,-1,-0.9782068656943019
4.37229595e+02,2.99998708e+02,-2.95482970e-06,6.81036731,4.66810087,1.59165907,-3.84509881,5.99982125e+01,7.45422713,-6.47341350e-01,-1,-0.976989366063477
4.43298897e+02,2.99998690e+02,-2.95451473e-06,6.81041188,4.66859519,1.59069271,-3.84509881,6.00896831e+01,7.45518285,-6.44473516e-01,-1,-0.9757718664326519
4.49368199e+02,2.99998672e+02,-2.95419975e-06,6.81045644,4.66908951,1.58972636,-3.84509882,6.01811536e+01,7.45613857,-6.41605683e-01,-1,-0.9745543668018269
4.55437502e+02,2.99998654e+02,-2.95388478e-06,6.81050101,4.66958383,1.58876000,-3.84509882,6.02726242e+01,7.45709429,-6.38737850e-01,-1,-0.9733368669704023
4.61506804e+02,2.99998636e+02,-2.95356980e-06,6.81054558,4.67007815,1.58779364,-3.84509883,6.03640947e+01,7.45805001,-6.35870016e-01,-1,-0.9721193673395774
4.68111211e+02,2.99998617e+02,-2.95274903e-06,6.81058887,4.67060927,1.58675305,-3.84509883,6.04534695e+01,7.45907619,-6.32790782e-01,-1,-0.9707945258529751
4.75212579e+02,2.99998596e+02,-2.95145850e-06,6.81063098,4.67117456,1.58564352,-3.84509884,6.05408977e+01,7.46016780,-6.29515215e-01,-1,-0.969369994182224
4.82313948e+02,2.99998575e+02,-2.95016797e-06,6.81067309,4.67173986,1.58453399,-3.84509884,6.06283260e+01,7.46125941,-6.26239649e-01,-1,-0.9679454623108734
4.89415316e+02,2.99998554e+02,-2.94887744e-06,6.81071521,4.67230515,1.58342445,-3.84509884,6.07157543e+01,7.46235103,-6.22964083e-01,-1,-0.9665209306401225
4.96516684e+02,2.99998533e+02,-2.94758691e-06,6.81075732,4.67287045,1.58231492,-3.84509884,6.08031825e+01,7.46344264,-6.19688517e-01,-1,-0.9650963989693714
5.03618052e+02,2.99998513e+02,-2.94629638e-06,6.81079943,4.67343574,1.58120539,-3.84509885,6.08906108e+01,7.46453425,-6.16412950e-01,-1,-0.9636718672986204
5.10719421e+02,2.99998492e+02,-2.94500585e-06,6.81084154,4.67400103,1.58009586,-3.84509885,6.09780391e+01,7.46562586,-6.13137384e-01,-1,-0.9622473354272698
5.17820789e+02,2.99998471e+02,-2.94371532e-06,6.81088366,4.67456633,1.57898632,-3.84509885,6.10654673e+01,7.46671747,-6.09861818e-01,-1,-0.9608228037565187
5.24922157e+02,2.99998450e+02,-2.94242479e-06,6.81092577,4.67513162,1.57787679,-3.84509886,6.11528956e+01,7.46780909,-6.06586251e-01,-1,-0.9593982720857678
5.32023526e+02,2.99998429e+02,-2.94113426e-06,6.81096788,4.67569692,1.57676726,-3.84509886,6.12403239e+01,7.46890070,-6.03310685e-01,-1,-0.9579737402144172
5.39942313e+02,2.99998406e+02,-2.93917354e-06,6.81100812,4.67631501,1.57555119,-3.84509886,6.13255139e+01,7.47009360,-5.99731170e-01,-1,-0.9563852346088167
5.47981632e+02,2.99998382e+02,-2.93711400e-06,6.81104809,4.67694089,1.57431941,-3.84509887,6.14103738e+01,7.47130145,-5.96106836e-01,-1,-0.9547725503306931
5.56020952e+02,2.99998359e+02,-2.93505447e-06,6.81108805,4.67756677,1.57308763,-3.84509887,6.14952338e+01,7.47250929,-5.92482501e-01,-1,-0.9531598658519699
5.64060271e+02,2.99998335e+02,-2.93299493e-06,6.81112802,4.67819265,1.57185585,-3.84509888,6.15800937e+01,7.47371713,-5.88858167e-01,-1,-0.9515471815738462
5.72099591e+02,2.99998312e+02,-2.93093539e-06,6.81116798,4.67881853,1.57062407,-3.84509888,6.16649537e+01,7.47492497,-5.85233833e-01,-1,-0.9499344970951229
5.80138910e+02,2.99998288e+02,-2.92887585e-06,6.81120795,4.67944441,1.56939230,-3.84509888,6.17498136e+01,7.47613281,-5.81609499e-01,-1,-0.9483218128169992
5.88178230e+02,2.99998265e+02,-2.92681631e-06,6.81124791,4.68007030,1.56816052,-3.84509889,6.18346736e+01,7.47734066,-5.77985165e-01,-1,-0.946709128338276
5.96217549e+02,2.99998241e+02,-2.92475678e-06,6.81128788,4.68069618,1.56692874,-3.84509889,6.19195336e+01,7.47854850,-5.74360830e-01,-1,-0.9450964440601524
6.04941857e+02,2.99998216e+02,-2.92213337e-06,6.81132663,4.68136373,1.56561300,-3.84509890,6.20016282e+01,7.47983649,-5.70495973e-01,-1,-0.943346351253895
6.13884377e+02,2.99998190e+02,-2.91933034e-06,6.81136499,4.68204456,1.56427052,-3.84509890,6.20828418e+01,7.48115002,-5.66554494e-01,-1,-0.9415524852049416
6.22826897e+02,2.99998164e+02,-2.91652731e-06,6.81140336,4.68272539,1.56292804,-3.84509891,6.21640554e+01,7.48246354,-5.62613016e-01,-1,-0.9397586191559881
6.31769417e+02,2.99998138e+02,-2.91372428e-06,6.81144172,4.68340623,1.56158556,-3.84509891,6.22452691e+01,7.48377707,-5.58671537e-01,-1,-0.9379647531070348
6.40711937e+02,2.99998112e+02,-2.91092125e-06,6.81148009,4.68408706,1.56024308,-3.84509892,6.23264827e+01,7.48509060,-5.54730058e-01,-1,-0.9361708870580813
6.49654457e+02,2.99998086e+02,-2.90811822e-06,6.81151846,4.68476789,1.55890060,-3.84509893,6.24076964e+01,7.48640412,-5.50788579e-01,-1,-0.9343770210091278
6.58596977e+02,2.99998060e+02,-2.90531519e-06,6.81155682,4.68544872,1.55755812,-3.84509893,6.24889100e+01,7.48771765,-5.46847100e-01,-1,-0.9325831549601744
6.68088770e+02,2.99998033e+02,-2.90239713e-06,6.81159436,4.68616001,1.55615432,-3.84509894,6.25744381e+01,7.48908984,-5.42729742e-01,-1,-0.9306791049601304
6.78010423e+02,2.99998004e+02,-2.89938906e-06,6.81163125,4.68689512,1.55470254,-3.84509895,6.26633428e+01,7.49050795,-5.38474741e-01,-1,-0.9286888252105523
6.87932076e+02,2.99997975e+02,-2.89638099e-06,6.81166814,4.68763024,1.55325075,-3.84509896,6.27522474e+01,7.49192606,-5.34219741e-01,-1,-0.9266985454609742
6.97853729e+02,2.99997947e+02,-2.89337292e-06,6.81170503,4.68836535,1.55179896,-3.84509897,6.28411521e+01,7.49334417,-5.29964740e-01,-1,-0.9247082657113961
7.07775382e+02,2.99997918e+02,-2.89036484e-06,6.81174192,4.68910047,1.55034718,-3.84509898,6.29300567e+01,7.49476228,-5.25709739e-01,-1,-0.922717985961818
7.17697035e+02,2.99997890e+02,-2.88735677e-06,6.81177881,4.68983558,1.54889539,-3.84509899,6.30189614e+01,7.49618038,-5.21454739e-01,-1,-0.92072770621224
7.27618688e+02,2.99997861e+02,-2.88434870e-06,6.81181570,4.69057070,1.54744360,-3.84509900,6.31078660e+01,7.49759849,-5.17199738e-01,-1,-0.9187374264626619
7.37540341e+02,2.99997833e+02,-2.88134063e-06,6.81185260,4.69130582,1.54599182,-3.84509901,6.31967706e+01,7.49901660,-5.12944737e-01,-1,-0.9167471467130838
7.48369412e+02,2.99997802e+02,-2.87769755e-06,6.81188863,4.69208725,1.54444696,-3.84509903,6.32823413e+01,7.50052421,-5.08421051e-01,-1,-0.914574839264109
7.59459786e+02,2.99997770e+02,-2.87387161e-06,6.81192441,4.69288203,1.54287530,-3.84509904,6.33669518e+01,7.50205759,-5.03819993e-01,-1,-0.9123501145345254
7.70550161e+02,2.99997738e+02,-2.87004567e-06,6.81196019,4.69367680,1.54130364,-3.84509905,6.34515623e+01,7.50359097,-4.99218936e-01,-1,-0.9101253896043422
7.81640536e+02,2.99997707e+02,-2.86621973e-06,6.81199598,4.69447158,1.53973198,-3.84509906,6.35361729e+01,7.50512435,-4.94617878e-01,-1,-0.907900664674159
7.92730911e+02,2.99997675e+02,-2.86239379e-06,6.81203176,4.69526636,1.53816032,-3.84509908,6.36207834e+01,7.50665773,-4.90016820e-01,-1,-0.9056759397439758
8.03821285e+02,2.99997644e+02,-2.85856785e-06,6.81206755,4.69606113,1.53658866,-3.84509909,6.37053939e+01,7.50819112,-4.85415762e-01,-1,-0.9034512150143922
8.14911660e+02,2.99997612e+02,-2.85474191e-06,6.81210333,4.69685591,1.53501700,-3.84509910,6.37900045e+01,7.50972450,-4.80814704e-01,-1,-0.901226490084209
8.26002035e+02,2.99997580e+02,-2.85091597e-06,6.81213911,4.69765068,1.53344534,-3.84509912,6.38746150e+01,7.51125788,-4.76213646e-01,-1,-0.8990017651540257
8.37589017e+02,2.99997548e+02,-2.84592208e-06,6.81217468,4.69847023,1.53182404,-3.84509913,6.39383782e+01,7.51283926,-4.71468907e-01,-1,-0.8966774210519567
8.49863577e+02,2.99997513e+02,-2.83931111e-06,6.81220994,4.69932406,1.53013400,-3.84509913,6.39732773e+01,7.51448711,-4.66525234e-01,-1,-0.8942151490693566
8.62138138e+02,2.99997479e+02,-2.83270015e-06,6.81224521,4.70017790,1.52844396,-3.84509913,6.40081764e+01,7.51613495,-4.61581560e-01,-1,-0.8917528768861567
8.74412698e+02,2.99997444e+02,-2.82608918e-06,6.81228047,4.70103173,1.52675393,-3.84509914,6.40430755e+01,7.51778280,-4.56637887e-01,-1,-0.8892906049035566
8.86687258e+02,2.99997410e+02,-2.81947821e-06,6.81231573,4.70188556,1.52506389,-3.84509914,6.40779746e+01,7.51943064,-4.51694213e-01,-1,-0.8868283329209563
8.98961819e+02,2.99997375e+02,-2.81286724e-06,6.81235100,4.70273940,1.52337385,-3.84509915,6.41128737e+01,7.52107849,-4.46750540e-01,-1,-0.8843660607377566
9.11236379e+02,2.99997341e+02,-2.80625628e-06,6.81238626,4.70359323,1.52168382,-3.84509915,6.41477728e+01,7.52272633,-4.41806867e-01,-1,-0.8819037887551564
9.24485798e+02,2.99997304e+02,-2.79913720e-06,6.81242088,4.70449044,1.51990672,-3.84509916,6.41794447e+01,7.52445824,-4.36610424e-01,-1,-0.8792459604346764
9.37817457e+02,2.99997267e+02,-2.79197527e-06,6.81245545,4.70539130,1.51812227,-3.84509916,6.42108442e+01,7.52619725,-4.31392657e-01,-1,-0.8765716348020444
9.51149116e+02,2.99997231e+02,-2.78481333e-06,6.81249002,4.70629217,1.51633783,-3.84509917,6.42422438e+01,7.52793625,-4.26174889e-01,-1,-0.8738973091694123
9.64480775e+02,2.99997194e+02,-2.77765140e-06,6.81252459,4.70719303,1.51455338,-3.84509918,6.42736433e+01,7.52967525,-4.20957122e-01,-1,-0.8712229835367804
9.77812435e+02,2.99997157e+02,-2.77048946e-06,6.81255916,4.70809390,1.51276894,-3.84509919,6.43050429e+01,7.53141425,-4.15739355e-01,-1,-0.8685486577035487
9.91433220e+02,2.99997119e+02,-2.76314004e-06,6.81259347,4.70900625,1.51096138,-3.84509920,6.43341597e+01,7.53317552,-4.10454890e-01,-1,-0.8658163335072826
1.00577906e+03,2.99997080e+02,-2.75532048e-06,6.81262713,4.70994742,1.50909587,-3.84509921,6.43575520e+01,7.53499262,-4.05003162e-01,-1,-0.8629385635587985
1.02012489e+03,2.99997041e+02,-2.74750092e-06,6.81266080,4.71088859,1.50723036,-3.84509922,6.43809443e+01,7.53680972,-3.99551434e-01,-1,-0.8600607956163104
1.03447073e+03,2.99997002e+02,-2.73968136e-06,6.81269446,4.71182976,1.50536485,-3.84509923,6.44043367e+01,7.53862683,-3.94099706e-01,-1,-0.8571830256678263
1.04881657e+03,2.99996963e+02,-2.73186180e-06,6.81272812,4.71277093,1.50349934,-3.84509924,6.44277290e+01,7.54044393,-3.88647979e-01,-1,-0.8543052557193422
1.06329996e+03,2.99996924e+02,-2.72411782e-06,6.81276160,4.71371662,1.50162472,-3.84509925,6.44536985e+01,7.54226977,-3.83170077e-01,-1,-0.8513998932941252
1.07875015e+03,2.99996882e+02,-2.71690510e-06,6.81279377,4.71469401,1.49968601,-3.84509927,6.44977828e+01,7.54415703,-3.77508205e-01,-1,-0.8483005911633075
1.09420034e+03,2.99996841e+02,-2.70969238e-06,6.81282594,4.71567141,1.49774730,-3.84509930,6.45418671e+01,7.54604429,-3.71846334e-01,-1,-0.8452012890324898
1.10965054e+03,2.99996799e+02,-2.70247966e-06,6.81285811,4.71664881,1.49580859,-3.84509932,6.45859514e+01,7.54793155,-3.66184462e-01,-1,-0.842101984895676
1.12510073e+03,2.99996758e+02,-2.69526694e-06,6.81289028,4.71762620,1.49386988,-3.84509934,6.46300357e+01,7.54981880,-3.60522591e-01,-1,-0.8390026827648583
1.14055092e+03,2.99996716e+02,-2.68805422e-06,6.81292245,4.71860360,1.49193117,-3.84509937,6.46741200e+01,7.55170606,-3.54860719e-01,-1,-0.8359033806340407
1.15649658e+03,2.99996674e+02,-2.68051898e-06,6.81295386,4.71959508,1.48996393,-3.84509939,6.47127173e+01,7.55362063,-3.49116832e-01,-1,-0.8327046874130968
1.17326959e+03,2.99996630e+02,-2.67244519e-06,6.81298400,4.72061007,1.48794902,-3.84509942,6.47421521e+01,7.55558079,-3.43235993e-01,-1,-0.8293400281025494
1.19004260e+03,2.99996586e+02,-2.66437140e-06,6.81301414,4.72162505,1.48593411,-3.84509945,6.47715869e+01,7.55754095,-3.37355154e-01,-1,-0.825975368792002
1.20681560e+03,2.99996541e+02,-2.65629761e-06,6.81304428,4.72264004,1.48391921,-3.84509948,6.48010217e+01,7.55950111,-3.31474315e-01,-1,-0.8226107114874507
1.22358861e+03,2.99996497e+02,-2.64822382e-06,6.81307442,4.72365503,1.48190430,-3.84509951,6.48304565e+01,7.56146127,-3.25593476e-01,-1,-0.8192460521769033
1.24036161e+03,2.99996453e+02,-2.64015003e-06,6.81310455,4.72467002,1.47988940,-3.84509953,6.48598913e+01,7.56342143,-3.19712637e-01,-1,-0.815881394872352
1.25715982e+03,2.99996409e+02,-2.63199712e-06,6.81313466,4.72568575,1.47787298,-3.84509956,6.48874541e+01,7.56538305,-3.13827422e-01,-1,-0.8125116804515634
1.27527804e+03,2.99996362e+02,-2.61969941e-06,6.81316323,4.72674062,1.47577752,-3.84509957,6.48169488e+01,7.56742104,-3.07712970e-01,-1,-0.808877172535957
1.29339626e+03,2.99996316e+02,-2.60740171e-06,6.81319179,4.72779549,1.47368207,-3.84509958,6.47464435e+01,7.56945903,-3.01598519e-01,-1,-0.8052426646203505
1.31151448e+03,2.99996269e+02,-2.59510401e-06,6.81322035,4.72885036,1.47158661,-3.84509958,6.46759383e+01,7.57149702,-2.95484068e-01,-1,-0.8016081567047441
1.32963270e+03,2.99996223e+02,-2.58280631e-06,6.81324891,4.72990523,1.46949115,-3.84509959,6.46054330e+01,7.57353501,-2.89369616e-01,-1,-0.7979736487891376
1.34775092e+03,2.99996176e+02,-2.57050861e-06,6.81327747,4.73096010,1.46739570,-3.84509960,6.45349278e+01,7.57557300,-2.83255165e-01,-1,-0.7943391408735312
1.36696022e+03,2.99996128e+02,-2.55828773e-06,6.81330513,4.73204370,1.46524231,-3.84509961,6.44672913e+01,7.57766751,-2.76970590e-01,-1,-0.7904857627324522
1.38629651e+03,2.99996079e+02,-2.54607581e-06,6.81333268,4.73313066,1.46308218,-3.84509962,6.43999887e+01,7.57976860,-2.70666213e-01,-1,-0.786606910446551
1.40563280e+03,2.99996031e+02,-2.53386388e-06,6.81336023,4.73421761,1.46092205,-3.84509964,6.43326861e+01,7.58186969,-2.64361837e-01,-1,-0.7827280581606497
1.42496910e+03,2.99995982e+02,-2.52165195e-06,6.81338778,4.73530456,1.45876192,-3.84509965,6.42653835e+01,7.58397078,-2.58057460e-01,-1,-0.7788492038687523
1.44472569e+03,2.99995933e+02,-2.51001704e-06,6.81341535,4.73640123,1.45658236,-3.84509967,6.42132426e+01,7.58609133,-2.51694617e-01,-1,-0.7748860395656149
1.46536438e+03,2.99995882e+02,-2.49959314e-06,6.81344296,4.73751829,1.45436205,-3.84509972,6.41929221e+01,7.58825272,-2.45209068e-01,-1,-0.7707459263440761
1.48600306e+03,2.99995831e+02,-2.48916923e-06,6.81347057,4.73863535,1.45214173,-3.84509976,6.41726015e+01,7.59041412,-2.38723519e-01,-1,-0.7666058151285335
1.50664175e+03,2.99995780e+02,-2.47874533e-06,6.81349818,4.73975241,1.44992141,-3.84509980,6.41522809e+01,7.59257552,-2.32237970e-01,-1,-0.7624657019069947
1.52728044e+03,2.99995730e+02,-2.46832142e-06,6.81352578,4.74086947,1.44770109,-3.84509984,6.41319604e+01,7.59473691,-2.25752421e-01,-1,-0.758325588685456
1.54820046e+03,2.99995678e+02,-2.45775724e-06,6.81355383,4.74199353,1.44546701,-3.84509989,6.41084791e+01,7.59691207,-2.19234741e-01,-1,-0.754129040774864
1.57039026e+03,2.99995625e+02,-2.44655989e-06,6.81358382,4.74314914,1.44317079,-3.84509994,6.40707320e+01,7.59914934,-2.12572044e-01,-1,-0.7496777754880023
1.59258006e+03,2.99995572e+02,-2.43536255e-06,6.81361381,4.74430475,1.44087456,-3.84509999,6.40329850e+01,7.60138660,-2.05909346e-01,-1,-0.7452265102011406
1.61476986e+03,2.99995519e+02,-2.42416521e-06,6.81364381,4.74546036,1.43857834,-3.84510004,6.39952379e+01,7.60362387,-1.99246649e-01,-1,-0.7407752449142788
1.63695966e+03,2.99995466e+02,-2.41296786e-06,6.81367380,4.74661597,1.43628211,-3.84510009,6.39574909e+01,7.60586114,-1.92583951e-01,-1,-0.736323979627417
1.65914946e+03,2.99995413e+02,-2.40177052e-06,6.81370380,4.74777158,1.43398589,-3.84510014,6.39197439e+01,7.60809840,-1.85921254e-01,-1,-0.7318727143405552
1.68202747e+03,2.99995359e+02,-2.38815711e-06,6.81373559,4.74894790,1.43164915,-3.84510017,6.38182009e+01,7.61037414,-1.79151131e-01,-1,-0.7272833943942072
1.70577065e+03,2.99995304e+02,-2.37150636e-06,6.81376965,4.75015026,1.42926146,-3.84510017,6.36364574e+01,7.61269824,-1.72245960e-01,-1,-0.7225205216809015
1.72951384e+03,2.99995249e+02,-2.35485560e-06,6.81380371,4.75135262,1.42687378,-3.84510018,6.34547138e+01,7.61502234,-1.65340788e-01,-1,-0.7177576469615997
1.75325703e+03,2.99995193e+02,-2.33820485e-06,6.81383777,4.75255497,1.42448609,-3.84510018,6.32729703e+01,7.61734644,-1.58435617e-01,-1,-0.712994772242298
1.77700021e+03,2.99995138e+02,-2.32155410e-06,6.81387183,4.75375733,1.42209841,-3.84510018,6.30912268e+01,7.61967054,-1.51530445e-01,-1,-0.7082318995289922
1.80188946e+03,2.99995082e+02,-2.30539450e-06,6.81391028,4.75499449,1.41964331,-3.84510020,6.29216077e+01,7.62205965,-1.44429970e-01,-1,-0.7032391256175093
1.82701217e+03,2.99995025e+02,-2.28933495e-06,6.81394962,4.75623874,1.41717448,-3.84510022,6.27544585e+01,7.62446200,-1.37289708e-01,-1,-0.6981995197204354
1.85213488e+03,2.99994969e+02,-2.27327541e-06,6.81398895,4.75748299,1.41470564,-3.84510023,6.25873093e+01,7.62686435,-1.30149447e-01,-1,-0.6931599138233612
1.87725760e+03,2.99994912e+02,-2.25721587e-06,6.81402829,4.75872724,1.41223681,-3.84510025,6.24201601e+01,7.62926669,-1.23009185e-01,-1,-0.688120305920291
1.90332542e+03,2.99994855e+02,-2.24109263e-06,6.81407218,4.76000139,1.40971046,-3.84510027,6.22504379e+01,7.63172535,-1.15698555e-01,-1,-0.6828911113232167
